1.408920e-03 0.000000e+00 -1.626439e-03
1.392199e-03 1.863511e-06 -1.617544e-03
1.338879e-03 5.516024e-06 -1.656682e-03
1.313390e-03 1.095463e-05 -1.668702e-03
1.323640e-03 1.815861e-05 -1.641200e-03
1.350882e-03 2.707417e-05 -1.614322e-03
1.306610e-03 3.778478e-05 -1.648556e-03
1.268189e-03 5.014576e-05 -1.676924e-03
1.276402e-03 6.414731e-05 -1.655672e-03
1.282200e-03 7.979329e-05 -1.620092e-03
1.237650e-03 9.684014e-05 -1.642546e-03
1.177983e-03 1.152058e-04 -1.678751e-03
1.170142e-03 1.347786e-04 -1.662451e-03
1.194401e-03 1.556202e-04 -1.624323e-03
1.163917e-03 1.779303e-04 -1.628506e-03
1.093355e-03 2.012762e-04 -1.666683e-03
1.076668e-03 2.253198e-04 -1.667548e-03
1.094036e-03 2.505034e-04 -1.625525e-03
1.045880e-03 2.767817e-04 -1.631728e-03
9.880082e-04 3.034018e-04 -1.658845e-03
9.583365e-04 3.304285e-04 -1.662980e-03
9.556188e-04 3.580522e-04 -1.635526e-03
9.319996e-04 3.862874e-04 -1.635911e-03
8.728201e-04 4.150799e-04 -1.661826e-03
8.328674e-04 4.438296e-04 -1.661298e-03
8.325124e-04 4.724086e-04 -1.631920e-03
8.198060e-04 5.013660e-04 -1.625814e-03
7.569882e-04 5.308158e-04 -1.656682e-03
7.097267e-04 5.598063e-04 -1.671106e-03
7.124704e-04 5.883636e-04 -1.637930e-03
6.743756e-04 6.170824e-04 -1.630574e-03
6.100117e-04 6.449523e-04 -1.656201e-03
5.692429e-04 6.716821e-04 -1.680049e-03
5.901220e-04 6.981140e-04 -1.651393e-03
5.953052e-04 7.254338e-04 -1.626343e-03
5.146130e-04 7.530450e-04 -1.648989e-03
4.358755e-04 7.782195e-04 -1.683222e-03
4.423724e-04 8.011966e-04 -1.659759e-03
4.702731e-04 8.243579e-04 -1.620909e-03
4.221280e-04 8.483670e-04 -1.634757e-03
3.710804e-04 8.708536e-04 -1.671154e-03
3.494901e-04 8.922519e-04 -1.662451e-03
3.395021e-04 9.126249e-04 -1.632785e-03
2.944020e-04 9.319060e-04 -1.632641e-03
2.311385e-04 9.489635e-04 -1.672260e-03
2.214123e-04 9.638827e-04 -1.677837e-03
2.653794e-04 9.786706e-04 -1.634949e-03
2.483188e-04 9.951062e-04 -1.620429e-03
1.682963e-04 1.010316e-03 -1.664086e-03
1.488285e-04 1.022042e-03 -1.672452e-03
1.697599e-04 1.032940e-03 -1.633747e-03
1.684129e-04 1.044144e-03 -1.621631e-03
1.120847e-04 1.055083e-03 -1.653028e-03
9.741706e-05 1.063308e-03 -1.669904e-03
1.133910e-04 1.071183e-03 -1.641392e-03
1.222712e-04 1.079371e-03 -1.619178e-03
6.684738e-05 1.087628e-03 -1.659903e-03
4.141027e-05 1.093207e-03 -1.683030e-03
7.138074e-05 1.097662e-03 -1.646489e-03
1.034249e-04 1.103266e-03 -1.623169e-03
8.346994e-05 1.110768e-03 -1.644517e-03
2.708103e-05 1.117537e-03 -1.682213e-03
5.069672e-05 1.120991e-03 -1.661682e-03
8.907508e-05 1.125742e-03 -1.621871e-03
7.323816e-05 1.132491e-03 -1.631728e-03
3.752469e-05 1.138346e-03 -1.671972e-03
5.857964e-05 1.142534e-03 -1.662596e-03
1.219264e-04 1.148328e-03 -1.619707e-03
1.056242e-04 1.158524e-03 -1.627689e-03
6.550957e-05 1.167674e-03 -1.665961e-03
8.148339e-05 1.174539e-03 -1.666298e-03
1.215640e-04 1.183020e-03 -1.626150e-03
1.061296e-04 1.194079e-03 -1.618698e-03
6.138139e-05 1.203536e-03 -1.656393e-03
4.825507e-05 1.210027e-03 -1.668606e-03
9.740625e-05 1.215688e-03 -1.626102e-03
1.016699e-04 1.224935e-03 -1.611534e-03
4.955190e-05 1.234261e-03 -1.648652e-03
3.590421e-05 1.239591e-03 -1.661826e-03
7.313503e-05 1.243998e-03 -1.630910e-03
9.621218e-05 1.251356e-03 -1.605043e-03
5.107642e-05 1.260432e-03 -1.636488e-03
8.482590e-06 1.265810e-03 -1.671058e-03
3.493509e-05 1.267726e-03 -1.647787e-03
6.669538e-05 1.271786e-03 -1.617255e-03
3.147742e-05 1.278444e-03 -1.632689e-03
-9.898210e-06 1.281691e-03 -1.664182e-03
1.173102e-05 1.281265e-03 -1.658605e-03
4.809864e-05 1.283170e-03 -1.615476e-03
8.705035e-06 1.287898e-03 -1.626919e-03
-2.539849e-05 1.288344e-03 -1.661971e-03
-8.839742e-07 1.285899e-03 -1.658701e-03
3.066038e-05 1.286329e-03 -1.623650e-03
4.183731e-06 1.289437e-03 -1.630766e-03
-3.420339e-05 1.289504e-03 -1.659470e-03
-1.843467e-05 1.285708e-03 -1.663798e-03
2.534298e-05 1.284049e-03 -1.622256e-03
2.824283e-05 1.286582e-03 -1.610620e-03
-2.451349e-05 1.289142e-03 -1.651441e-03
-2.041463e-05 1.286198e-03 -1.656538e-03
2.544094e-05 1.283951e-03 -1.621487e-03
3.190929e-05 1.286619e-03 -1.608408e-03
-1.335236e-05 1.289712e-03 -1.636776e-03
-3.524616e-05 1.287758e-03 -1.662163e-03
1.942135e-05 1.283769e-03 -1.623987e-03
2.934774e-05 1.285766e-03 -1.601869e-03
-9.654848e-06 1.288323e-03 -1.631968e-03
-4.942853e-05 1.286748e-03 -1.669087e-03
-3.733064e-06 1.281151e-03 -1.640334e-03
2.878073e-05 1.280659e-03 -1.613745e-03
-5.697132e-06 1.283596e-03 -1.636536e-03
-2.954632e-05 1.282731e-03 -1.663750e-03
-1.193702e-05 1.279643e-03 -1.648075e-03
2.182091e-05 1.278340e-03 -1.616342e-03
2.128144e-06 1.280435e-03 -1.628699e-03
-2.802475e-05 1.280345e-03 -1.662115e-03
-5.282946e-06 1.277412e-03 -1.657884e-03
4.225730e-05 1.277376e-03 -1.615284e-03
2.897545e-05 1.282196e-03 -1.617736e-03
-1.027240e-05 1.285334e-03 -1.648556e-03
-2.036596e-05 1.284321e-03 -1.659711e-03
1.099254e-05 1.282340e-03 -1.637065e-03
1.920451e-05 1.283744e-03 -1.623073e-03
-6.167694e-06 1.285750e-03 -1.651585e-03
-1.623782e-05 1.285386e-03 -1.663317e-03
1.665815e-05 1.284079e-03 -1.630958e-03
2.443749e-05 1.286013e-03 -1.618986e-03
-6.916030e-06 1.288565e-03 -1.645527e-03
-2.896355e-05 1.287871e-03 -1.671972e-03
9.092512e-06 1.285154e-03 -1.635622e-03
3.576328e-05 1.286226e-03 -1.607254e-03
6.303253e-06 1.289867e-03 -1.634997e-03
-1.719046e-05 1.290569e-03 -1.667788e-03
9.513487e-06 1.289301e-03 -1.642690e-03
4.518720e-05 1.290698e-03 -1.616534e-03
8.395522e-06 1.295948e-03 -1.640863e-03
-3.101565e-05 1.297135e-03 -1.676828e-03
-1.059408e-05 1.294311e-03 -1.661057e-03
3.445928e-05 1.293637e-03 -1.622063e-03
3.020804e-05 1.297599e-03 -1.622208e-03
-1.550981e-05 1.301006e-03 -1.666346e-03
-2.830526e-06 1.299866e-03 -1.658317e-03
3.874120e-05 1.300125e-03 -1.618842e-03
2.639360e-05 1.304538e-03 -1.623890e-03
-2.241685e-05 1.307480e-03 -1.665577e-03
-2.285135e-05 1.305366e-03 -1.671394e-03
2.047530e-05 1.303389e-03 -1.622833e-03
2.272674e-05 1.305465e-03 -1.619948e-03
-1.215085e-05 1.307744e-03 -1.651633e-03
-3.786882e-05 1.306488e-03 -1.674712e-03
1.780475e-05 1.302598e-03 -1.624083e-03
2.696468e-05 1.304352e-03 -1.608601e-03
-1.393248e-05 1.306784e-03 -1.645431e-03
-3.254822e-05 1.305062e-03 -1.656634e-03
-2.623464e-05 1.301249e-03 -1.636151e-03
-5.887199e-06 1.297537e-03 -1.605956e-03
-4.059915e-05 1.295467e-03 -1.636392e-03
-8.142653e-05 1.289849e-03 -1.668029e-03
-3.959442e-05 1.279894e-03 -1.637113e-03
-2.125875e-05 1.274444e-03 -1.611726e-03
-6.557792e-05 1.270538e-03 -1.635574e-03
-1.069716e-04 1.261543e-03 -1.670144e-03
-8.616831e-05 1.248240e-03 -1.653845e-03
-3.107205e-05 1.237138e-03 -1.616246e-03
-3.999539e-05 1.232069e-03 -1.631824e-03
-6.660463e-05 1.226369e-03 -1.666683e-03
-2.532655e-05 1.218363e-03 -1.652883e-03
3.119322e-05 1.215405e-03 -1.619900e-03
3.082714e-05 1.218848e-03 -1.622688e-03
2.194914e-05 1.222341e-03 -1.655624e-03
2.758556e-05 1.225840e-03 -1.667404e-03
8.986583e-05 1.230537e-03 -1.612736e-03
9.715688e-05 1.241613e-03 -1.610524e-03
6.690658e-05 1.253592e-03 -1.651056e-03
5.015491e-05 1.262987e-03 -1.669231e-03
8.350196e-05 1.270798e-03 -1.631680e-03
1.011370e-04 1.281723e-03 -1.614611e-03
7.404595e-05 1.294390e-03 -1.644277e-03
4.369930e-05 1.304495e-03 -1.666634e-03
7.300634e-05 1.311344e-03 -1.634709e-03
8.375929e-05 1.320978e-03 -1.611726e-03
3.053428e-05 1.331218e-03 -1.640767e-03
-4.225700e-06 1.335351e-03 -1.667548e-03
3.894660e-05 1.335787e-03 -1.636007e-03
5.807180e-05 1.340895e-03 -1.615621e-03
3.353953e-05 1.347829e-03 -1.629997e-03
-1.863294e-06 1.351980e-03 -1.665144e-03
1.803960e-05 1.352655e-03 -1.650335e-03
5.319509e-05 1.355485e-03 -1.621150e-03
2.300215e-05 1.361974e-03 -1.636055e-03
-3.159059e-05 1.364927e-03 -1.673222e-03
-3.377891e-05 1.361875e-03 -1.655816e-03
-2.619611e-05 1.357898e-03 -1.609706e-03
-3.040984e-05 1.353265e-03 -1.609466e-03
-4.583051e-05 1.348059e-03 -1.647546e-03
-1.052972e-04 1.342183e-03 -1.668269e-03
-1.541330e-04 1.329090e-03 -1.636488e-03
-2.150454e-04 1.308265e-03 -1.628025e-03
-2.226646e-04 1.278910e-03 -1.656105e-03
1.995228e-05 1.249533e-03 -1.668943e-03
3.334645e-04 1.253259e-03 -1.622736e-03
4.596496e-04 1.297473e-03 -1.605523e-03
3.634751e-04 1.358020e-03 -1.645142e-03
3.079252e-04 1.407079e-03 -1.678318e-03
3.512743e-04 1.449891e-03 -1.629804e-03
3.069287e-04 1.496785e-03 -1.606245e-03
1.470043e-04 1.536844e-03 -1.632882e-03
-1.968812e-06 1.556334e-03 -1.665769e-03
-2.975874e-05 1.557006e-03 -1.639276e-03
-3.411335e-05 1.552994e-03 -1.604850e-03
-1.035043e-04 1.547138e-03 -1.627400e-03
-1.627034e-04 1.532773e-03 -1.671779e-03
-1.391088e-04 1.512064e-03 -1.652354e-03
-1.032075e-04 1.493857e-03 -1.625814e-03
-1.048088e-04 1.479495e-03 -1.634084e-03
-1.321220e-04 1.465170e-03 -1.668317e-03
-9.712458e-05 1.448396e-03 -1.653845e-03
-4.163430e-05 1.435841e-03 -1.613024e-03
-3.103309e-05 1.429279e-03 -1.617976e-03
-7.668157e-05 1.424299e-03 -1.657355e-03
-7.679236e-05 1.414600e-03 -1.669327e-03
-2.315965e-05 1.405347e-03 -1.632737e-03
-2.408257e-05 1.401991e-03 -1.623698e-03
-6.369708e-05 1.398139e-03 -1.657884e-03
-5.236203e-05 1.390170e-03 -1.669712e-03
-1.088825e-05 1.384180e-03 -1.627304e-03
-5.984265e-06 1.382257e-03 -1.619178e-03
-3.059825e-05 1.380667e-03 -1.647594e-03
-4.731838e-05 1.376760e-03 -1.669471e-03
-1.737383e-05 1.371433e-03 -1.645767e-03
1.067436e-05 1.369301e-03 -1.613216e-03
-2.941762e-05 1.369726e-03 -1.636055e-03
-5.014053e-05 1.365543e-03 -1.662355e-03
-2.876837e-05 1.359556e-03 -1.644950e-03
9.113570e-06 1.355860e-03 -1.615188e-03
-9.703282e-06 1.356166e-03 -1.639036e-03
-3.569760e-05 1.354754e-03 -1.668798e-03
4.863990e-06 1.350926e-03 -1.651345e-03
2.069609e-05 1.351971e-03 -1.618313e-03
-1.060927e-05 1.353946e-03 -1.630958e-03
-5.411617e-05 1.352113e-03 -1.662980e-03
-3.292535e-05 1.345587e-03 -1.662596e-03
1.778555e-05 1.341947e-03 -1.624708e-03
2.871936e-05 1.343755e-03 -1.617592e-03
-2.540749e-05 1.346723e-03 -1.661394e-03
-3.771968e-05 1.343987e-03 -1.671683e-03
5.370393e-07 1.340012e-03 -1.628795e-03
1.331123e-05 1.339643e-03 -1.622640e-03
-3.344089e-05 1.340718e-03 -1.648508e-03
-4.422917e-05 1.336408e-03 -1.672549e-03
-9.626608e-06 1.331568e-03 -1.637978e-03
-9.562305e-06 1.330157e-03 -1.620861e-03
-3.860053e-05 1.328088e-03 -1.645960e-03
-4.310633e-05 1.322976e-03 -1.665000e-03
-6.619256e-06 1.317983e-03 -1.640959e-03
1.486171e-05 1.317080e-03 -1.621246e-03
-2.575804e-05 1.318322e-03 -1.647066e-03
-6.125609e-05 1.314970e-03 -1.668702e-03
-3.368405e-05 1.307640e-03 -1.647306e-03
2.966664e-06 1.303300e-03 -1.616438e-03
-1.726542e-05 1.302761e-03 -1.633122e-03
-6.027500e-05 1.300046e-03 -1.673126e-03
-3.211580e-05 1.292994e-03 -1.661057e-03
1.763971e-05 1.289348e-03 -1.632641e-03
5.092178e-06 1.291366e-03 -1.629997e-03
-3.521433e-05 1.291525e-03 -1.667933e-03
-1.952827e-05 1.287618e-03 -1.665769e-03
2.575440e-05 1.285802e-03 -1.620429e-03
6.459996e-07 1.288456e-03 -1.632064e-03
-4.466386e-05 1.288089e-03 -1.676203e-03
-2.532776e-05 1.283177e-03 -1.675962e-03
3.219045e-05 1.280904e-03 -1.628747e-03
3.503163e-05 1.284698e-03 -1.626391e-03
1.594364e-05 1.288736e-03 -1.652643e-03
1.455993e-06 1.291108e-03 -1.671250e-03
2.584355e-05 1.292251e-03 -1.633603e-03
6.273390e-05 1.295364e-03 -1.601148e-03
4.158134e-05 1.302237e-03 -1.633699e-03
1.646223e-05 1.307402e-03 -1.666923e-03
4.920039e-05 1.310437e-03 -1.645142e-03
8.406872e-05 1.317158e-03 -1.611870e-03
5.647683e-05 1.327345e-03 -1.635670e-03
3.502389e-05 1.334614e-03 -1.663077e-03
6.818718e-05 1.340012e-03 -1.632930e-03
8.135120e-05 1.348869e-03 -1.615092e-03
4.188503e-05 1.358861e-03 -1.640863e-03
2.058641e-05 1.364390e-03 -1.661249e-03
4.921317e-05 1.367785e-03 -1.641440e-03
7.446915e-05 1.374406e-03 -1.615572e-03
6.762911e-05 1.383506e-03 -1.623169e-03
2.885986e-05 1.391888e-03 -1.656826e-03
6.056982e-06 1.396276e-03 -1.668462e-03
4.881693e-05 1.398087e-03 -1.621583e-03
4.628479e-05 1.403985e-03 -1.624900e-03
-8.755942e-06 1.409598e-03 -1.662740e-03
-8.418094e-06 1.409116e-03 -1.672452e-03
4.103926e-05 1.409086e-03 -1.631439e-03
2.796542e-05 1.414275e-03 -1.622544e-03
-2.893138e-05 1.417320e-03 -1.659807e-03
1.795321e-07 1.413981e-03 -1.663605e-03
3.968280e-05 1.414770e-03 -1.630381e-03
2.494029e-05 1.419752e-03 -1.619515e-03
-2.698392e-05 1.422297e-03 -1.649229e-03
-3.034154e-05 1.418828e-03 -1.657788e-03
1.081027e-05 1.415275e-03 -1.625958e-03
3.002400e-05 1.416207e-03 -1.608697e-03
-3.971906e-06 1.419094e-03 -1.645767e-03
-2.570632e-05 1.418663e-03 -1.669471e-03
5.863810e-06 1.416182e-03 -1.642834e-03
2.420054e-05 1.417077e-03 -1.614370e-03
4.379183e-06 1.419398e-03 -1.632160e-03
-2.506155e-05 1.419606e-03 -1.669904e-03
3.501370e-07 1.417224e-03 -1.657884e-03
2.842093e-05 1.417906e-03 -1.621294e-03
-2.132629e-06 1.421054e-03 -1.636728e-03
-2.759103e-05 1.420548e-03 -1.668221e-03
1.966301e-05 1.417721e-03 -1.646729e-03
3.828834e-05 1.420588e-03 -1.623987e-03
1.624187e-05 1.425181e-03 -1.634564e-03
-1.388460e-05 1.427084e-03 -1.656105e-03
3.519188e-06 1.425643e-03 -1.648075e-03
1.761243e-05 1.426359e-03 -1.631247e-03
2.257157e-05 1.428419e-03 -1.625189e-03
-1.327689e-05 1.430851e-03 -1.655239e-03
-2.147560e-05 1.429482e-03 -1.668462e-03
1.901387e-05 1.427553e-03 -1.632641e-03
4.447352e-05 1.429836e-03 -1.615140e-03
1.098070e-05 1.434865e-03 -1.646537e-03
4.742197e-06 1.436440e-03 -1.658845e-03
2.659406e-05 1.437667e-03 -1.629468e-03
4.070117e-05 1.440869e-03 -1.608504e-03
5.996957e-06 1.445186e-03 -1.636728e-03
-1.555171e-05 1.445772e-03 -1.660336e-03
2.030639e-05 1.444340e-03 -1.638507e-03
3.221104e-05 1.447051e-03 -1.617400e-03
2.162310e-05 1.450572e-03 -1.626679e-03
-2.401085e-05 1.452933e-03 -1.673510e-03
1.249585e-05 1.450852e-03 -1.656297e-03
4.558492e-05 1.453150e-03 -1.621342e-03
1.701754e-05 1.458638e-03 -1.632689e-03
-6.946981e-06 1.460582e-03 -1.656105e-03
2.472422e-05 1.460116e-03 -1.643988e-03
5.183274e-05 1.463587e-03 -1.613553e-03
2.898015e-05 1.469659e-03 -1.619227e-03
-8.414058e-06 1.472771e-03 -1.657499e-03
-1.159119e-05 1.472198e-03 -1.664759e-03
2.055293e-05 1.471547e-03 -1.625044e-03
3.563726e-05 1.473820e-03 -1.609562e-03
-1.046305e-05 1.477513e-03 -1.656057e-03
-3.808669e-05 1.476625e-03 -1.674520e-03
1.436102e-05 1.472739e-03 -1.630093e-03
5.043346e-05 1.474362e-03 -1.605331e-03
6.943573e-06 1.479915e-03 -1.656249e-03
3.913115e-06 1.481360e-03 -1.654518e-03
2.621322e-05 1.482379e-03 -1.623987e-03
2.848160e-05 1.485399e-03 -1.609755e-03
1.027898e-06 1.488187e-03 -1.646537e-03
-4.500409e-05 1.488542e-03 -1.684809e-03
1.344912e-05 1.484084e-03 -1.641344e-03
5.119808e-05 1.486002e-03 -1.604995e-03
4.264433e-06 1.491683e-03 -1.637257e-03
-3.010722e-05 1.492108e-03 -1.673366e-03
3.170946e-05 1.489192e-03 -1.635959e-03
5.374731e-05 1.493358e-03 -1.614322e-03
2.006148e-05 1.499734e-03 -1.628362e-03
-2.150682e-05 1.501971e-03 -1.664423e-03
-1.914205e-05 1.499895e-03 -1.651585e-03
-6.909916e-06 1.497808e-03 -1.627016e-03
-2.096887e-05 1.496481e-03 -1.624083e-03
-7.340449e-05 1.493046e-03 -1.670770e-03
-6.158059e-05 1.484204e-03 -1.667981e-03
-3.193492e-05 1.476964e-03 -1.640142e-03
-2.222408e-05 1.472734e-03 -1.631391e-03
-3.889417e-05 1.469354e-03 -1.634757e-03
-8.791708e-05 1.463805e-03 -1.671058e-03
-6.127559e-05 1.453079e-03 -1.636632e-03
-3.785488e-05 1.444756e-03 -1.605379e-03
-8.048383e-05 1.438390e-03 -1.656585e-03
-7.885418e-05 1.428057e-03 -1.689906e-03
6.084689e-06 1.419183e-03 -1.649229e-03
4.670755e-05 1.420342e-03 -1.610764e-03
7.480663e-06 1.425527e-03 -1.652739e-03
7.899376e-06 1.426841e-03 -1.675049e-03
7.060303e-05 1.429046e-03 -1.638315e-03
8.503301e-05 1.438464e-03 -1.607735e-03
5.205018e-05 1.448705e-03 -1.649229e-03
4.534983e-05 1.455886e-03 -1.666538e-03
6.438586e-05 1.462813e-03 -1.660192e-03
1.015919e-04 1.472198e-03 -1.634468e-03
8.784416e-05 1.485658e-03 -1.644565e-03
2.834941e-05 1.497504e-03 -1.686684e-03
4.105833e-05 1.502777e-03 -1.661394e-03
7.010552e-05 1.508973e-03 -1.632112e-03
5.722638e-05 1.518054e-03 -1.638988e-03
2.115846e-05 1.525514e-03 -1.676347e-03
2.247696e-05 1.529388e-03 -1.674135e-03
5.561707e-05 1.533463e-03 -1.634661e-03
5.369906e-05 1.540622e-03 -1.624756e-03
-3.882665e-06 1.547045e-03 -1.660817e-03
-1.634955e-05 1.546963e-03 -1.686011e-03
4.991925e-05 1.546181e-03 -1.637690e-03
4.849300e-05 1.552655e-03 -1.619804e-03
-1.627822e-06 1.558205e-03 -1.655768e-03
-4.012113e-05 1.558233e-03 -1.691733e-03
-3.559555e-05 1.554429e-03 -1.655528e-03
-3.322535e-05 1.549991e-03 -1.624756e-03
-6.299227e-05 1.544659e-03 -1.648845e-03
-6.824367e-05 1.536063e-03 -1.682213e-03
-5.380073e-05 1.528015e-03 -1.659855e-03
-9.724330e-05 1.521212e-03 -1.620765e-03
-2.095806e-04 1.507097e-03 -1.653749e-03
-2.687390e-04 1.478844e-03 -1.698512e-03
4.634330e-07 1.444181e-03 -1.670048e-03
2.937811e-04 1.445023e-03 -1.630814e-03
3.527768e-04 1.484113e-03 -1.639757e-03
2.811561e-04 1.531357e-03 -1.673751e-03
2.833289e-04 1.570149e-03 -1.670433e-03
3.238721e-04 1.609276e-03 -1.646248e-03
2.670956e-04 1.653070e-03 -1.660240e-03
1.394873e-04 1.689565e-03 -1.696252e-03
4.727245e-05 1.709995e-03 -1.685963e-03
7.089973e-06 1.717626e-03 -1.649806e-03
-3.062879e-05 1.718564e-03 -1.643027e-03
-9.827344e-05 1.713990e-03 -1.672933e-03
-1.442250e-04 1.701235e-03 -1.696781e-03
-9.578962e-05 1.683187e-03 -1.651922e-03
-1.047163e-04 1.670188e-03 -1.639902e-03
-1.560006e-04 1.655458e-03 -1.690531e-03
-1.341966e-04 1.635433e-03 -1.703609e-03
-6.775744e-05 1.618853e-03 -1.655480e-03
-4.976751e-05 1.609663e-03 -1.625044e-03
-8.992475e-05 1.601738e-03 -1.656682e-03
-1.123502e-04 1.589353e-03 -1.688992e-03
-6.447194e-05 1.575132e-03 -1.664134e-03
-1.966724e-05 1.566676e-03 -1.640382e-03
-4.593975e-05 1.563427e-03 -1.659422e-03
-7.718029e-05 1.557068e-03 -1.685867e-03
-7.058750e-05 1.547445e-03 -1.686492e-03
-3.474613e-05 1.538914e-03 -1.659134e-03
-3.396015e-05 1.534234e-03 -1.656441e-03
-6.464179e-05 1.529384e-03 -1.695147e-03
-3.518523e-05 1.521708e-03 -1.687983e-03
4.272183e-06 1.517927e-03 -1.644085e-03
-1.548247e-05 1.517968e-03 -1.640046e-03
-6.768839e-05 1.515025e-03 -1.703465e-03
-6.074465e-05 1.507168e-03 -1.718081e-03
-2.332179e-05 1.500902e-03 -1.672693e-03
5.734256e-06 1.498146e-03 -1.640671e-03
2.280798e-06 1.497993e-03 -1.650720e-03
-5.627978e-05 1.497655e-03 -1.701061e-03
-3.723110e-05 1.491299e-03 -1.689665e-03
2.104038e-05 1.487215e-03 -1.633362e-03
-3.707706e-05 1.488933e-03 -1.676203e-03
-7.021028e-05 1.484130e-03 -1.724043e-03
-1.459878e-05 1.476552e-03 -1.673991e-03
3.904035e-06 1.474926e-03 -1.651874e-03
-1.862151e-05 1.474950e-03 -1.674424e-03
-5.058071e-05 1.472483e-03 -1.700820e-03
-2.544632e-05 1.466628e-03 -1.682982e-03
3.618346e-06 1.463769e-03 -1.661201e-03
-4.184744e-05 1.464085e-03 -1.693223e-03
-6.721745e-05 1.459068e-03 -1.714043e-03
-1.138404e-05 1.451268e-03 -1.684953e-03
4.608061e-05 1.450250e-03 -1.634084e-03
1.559762e-05 1.455346e-03 -1.649325e-03
-5.944833e-05 1.456636e-03 -1.713129e-03
-5.758337e-05 1.449819e-03 -1.701638e-03
-1.454519e-05 1.442986e-03 -1.661730e-03
-3.301415e-05 1.440732e-03 -1.681107e-03
-4.561261e-05 1.436406e-03 -1.698897e-03
-5.434267e-05 1.430856e-03 -1.707023e-03
-9.408870e-07 1.424526e-03 -1.661490e-03
-1.716352e-06 1.424051e-03 -1.659470e-03
-5.406432e-05 1.423269e-03 -1.711013e-03
-7.262252e-05 1.416922e-03 -1.730727e-03
-2.584783e-05 1.408804e-03 -1.685915e-03
1.723730e-05 1.405675e-03 -1.648556e-03
-1.373142e-05 1.407025e-03 -1.678655e-03
-5.477826e-05 1.404991e-03 -1.725245e-03
3.794738e-06 1.399019e-03 -1.671491e-03
2.478936e-05 1.399421e-03 -1.648893e-03
-1.317090e-05 1.401849e-03 -1.682646e-03
-6.389959e-05 1.400025e-03 -1.728851e-03
-2.094824e-05 1.392845e-03 -1.705244e-03
1.554833e-05 1.390968e-03 -1.664230e-03
7.728446e-06 1.392633e-03 -1.664856e-03
-1.654040e-05 1.393005e-03 -1.696493e-03
-6.876826e-06 1.391131e-03 -1.699089e-03
3.396875e-05 1.390914e-03 -1.665481e-03
2.202348e-05 1.395215e-03 -1.672693e-03
-1.897181e-06 1.397883e-03 -1.708128e-03
2.136372e-05 1.398422e-03 -1.703368e-03
6.347246e-05 1.402232e-03 -1.669423e-03
5.785311e-05 1.410784e-03 -1.659230e-03
2.151498e-05 1.417985e-03 -1.694329e-03
1.073780e-05 1.421261e-03 -1.708321e-03
5.997113e-05 1.423715e-03 -1.672116e-03
7.246777e-05 1.431893e-03 -1.655528e-03
1.174521e-05 1.441073e-03 -1.699282e-03
8.321802e-06 1.443150e-03 -1.710725e-03
6.296585e-05 1.445289e-03 -1.659759e-03
7.438939e-05 1.453435e-03 -1.641248e-03
-6.332115e-05 1.462480e-03 -1.749719e-03
-6.039407e-05 1.455899e-03 -1.763806e-03
6.289832e-05 1.450214e-03 -1.666154e-03
8.542957e-05 1.458502e-03 -1.634949e-03
2.081760e-05 1.468782e-03 -1.678270e-03
-4.066966e-06 1.471309e-03 -1.692069e-03
-4.729947e-06 1.470915e-03 -1.686540e-03
1.284914e-05 1.470500e-03 -1.655672e-03
-2.359237e-05 1.471409e-03 -1.677116e-03
-4.633532e-05 1.467708e-03 -1.710436e-03
-3.088899e-06 1.462013e-03 -1.693704e-03
3.496105e-05 1.462044e-03 -1.649902e-03
2.270005e-05 1.465890e-03 -1.656922e-03
-4.705859e-05 1.468047e-03 -1.710677e-03
-3.713158e-05 1.462255e-03 -1.705244e-03
1.281914e-05 1.457885e-03 -1.664904e-03
8.052556e-06 1.459189e-03 -1.666827e-03
-4.224269e-05 1.459673e-03 -1.717264e-03
-3.665076e-05 1.454754e-03 -1.719620e-03
2.283672e-05 1.450896e-03 -1.674472e-03
1.890638e-05 1.453962e-03 -1.677116e-03
-1.927226e-05 1.456367e-03 -1.711686e-03
-3.510346e-05 1.454408e-03 -1.720630e-03
-3.567629e-06 1.450712e-03 -1.697262e-03
1.459757e-05 1.450817e-03 -1.676251e-03
-1.745508e-05 1.452531e-03 -1.686059e-03
-4.389629e-05 1.449835e-03 -1.717120e-03
9.378247e-06 1.444642e-03 -1.674712e-03
-1.493052e-05 1.445728e-03 -1.691589e-03
-3.669967e-05 1.443889e-03 -1.713465e-03
-4.490488e-06 1.439422e-03 -1.681492e-03
-4.347203e-05 1.438448e-03 -1.722841e-03
6.463564e-05 1.433667e-03 -1.633362e-03
2.687714e-05 1.440942e-03 -1.652931e-03
-5.580505e-05 1.443377e-03 -1.728082e-03
1.829080e-07 1.436768e-03 -1.688560e-03
3.561210e-05 1.436919e-03 -1.656538e-03
-3.587422e-06 1.441019e-03 -1.680915e-03
-4.881949e-05 1.440189e-03 -1.727601e-03
-9.066105e-06 1.434526e-03 -1.708898e-03
3.129584e-05 1.434071e-03 -1.675914e-03
1.840043e-05 1.438264e-03 -1.677741e-03
-3.438992e-05 1.440425e-03 -1.719956e-03
-2.551329e-05 1.436452e-03 -1.727265e-03
2.533884e-05 1.434210e-03 -1.676635e-03
1.503475e-05 1.437543e-03 -1.679039e-03
-3.586952e-05 1.439309e-03 -1.721110e-03
-3.633358e-05 1.435109e-03 -1.728178e-03
2.147509e-05 1.431247e-03 -1.690819e-03
1.841655e-05 1.434497e-03 -1.689906e-03
-9.453908e-06 1.437077e-03 -1.702984e-03
-3.764653e-05 1.435893e-03 -1.732313e-03
-2.436687e-06 1.431888e-03 -1.696349e-03
1.551988e-07 1.431844e-03 -1.696781e-03
-3.944967e-06 1.432049e-03 -1.695916e-03
-1.578663e-05 1.431342e-03 -1.709379e-03
-1.035238e-05 1.429513e-03 -1.714716e-03
2.592663e-05 1.428910e-03 -1.679280e-03
1.328353e-05 1.432129e-03 -1.674376e-03
-3.625051e-05 1.433103e-03 -1.718226e-03
5.800284e-06 1.428603e-03 -1.701205e-03
3.429378e-05 1.429775e-03 -1.676155e-03
1.040087e-05 1.434147e-03 -1.688944e-03
-2.668681e-05 1.435270e-03 -1.704715e-03
-5.265978e-06 1.431591e-03 -1.693320e-03
1.067021e-05 1.430849e-03 -1.696830e-03
1.820042e-05 1.432599e-03 -1.681924e-03
-3.678857e-05 1.434650e-03 -1.723034e-03
-5.574443e-05 1.430190e-03 -1.742747e-03
2.851792e-05 1.423915e-03 -1.676395e-03
4.741406e-05 1.427425e-03 -1.658220e-03
-1.877701e-05 1.432793e-03 -1.716206e-03
-2.697174e-05 1.430603e-03 -1.730534e-03
7.907838e-06 1.427937e-03 -1.705628e-03
3.685682e-05 1.429568e-03 -1.674231e-03
-3.834836e-05 1.434046e-03 -1.708128e-03
-5.665396e-05 1.428744e-03 -1.757460e-03
1.040322e-05 1.422702e-03 -1.699378e-03
2.699353e-05 1.424382e-03 -1.667019e-03
-1.205794e-05 1.427180e-03 -1.701349e-03
-4.090124e-05 1.425348e-03 -1.733756e-03
2.068342e-05 1.420595e-03 -1.691973e-03
5.482527e-05 1.423428e-03 -1.653845e-03
-1.192683e-05 1.429790e-03 -1.706205e-03
-7.280774e-05 1.428214e-03 -1.754767e-03
-3.689543e-05 1.419611e-03 -1.718851e-03
-8.138882e-07 1.415119e-03 -1.674664e-03
-3.031655e-05 1.414235e-03 -1.684953e-03
-7.528239e-05 1.409195e-03 -1.720966e-03
-7.574206e-05 1.398933e-03 -1.728371e-03
-1.363581e-05 1.389139e-03 -1.673077e-03
-4.606690e-05 1.386375e-03 -1.685771e-03
-1.081174e-04 1.379140e-03 -1.724043e-03
-1.170387e-04 1.364214e-03 -1.745968e-03
-6.060393e-05 1.349033e-03 -1.689136e-03
-4.841941e-05 1.340069e-03 -1.674135e-03
-8.888635e-05 1.332070e-03 -1.728707e-03
-7.897881e-05 1.320000e-03 -1.752123e-03
5.447390e-06 1.310388e-03 -1.702503e-03
4.443266e-05 1.311357e-03 -1.672549e-03
2.209172e-05 1.316678e-03 -1.709619e-03
2.204277e-05 1.319852e-03 -1.731304e-03
7.455221e-05 1.323934e-03 -1.695964e-03
7.106670e-05 1.334583e-03 -1.698416e-03
4.553774e-05 1.344726e-03 -1.708369e-03
2.911594e-05 1.351244e-03 -1.729092e-03
6.752891e-05 1.356200e-03 -1.711158e-03
9.223860e-05 1.366349e-03 -1.684713e-03
5.979353e-05 1.379080e-03 -1.695483e-03
2.039678e-06 1.387215e-03 -1.738131e-03
5.130443e-05 1.388532e-03 -1.701878e-03
8.917823e-05 1.395950e-03 -1.654518e-03
4.330811e-05 1.407202e-03 -1.684184e-03
-2.337243e-05 1.412627e-03 -1.743180e-03
2.770005e-05 1.410453e-03 -1.707552e-03
4.772083e-05 1.414665e-03 -1.688752e-03
9.088613e-06 1.421227e-03 -1.704811e-03
-3.030221e-05 1.422490e-03 -1.743757e-03
-1.536327e-05 1.419283e-03 -1.730871e-03
4.264196e-05 1.418013e-03 -1.680530e-03
1.172067e-05 1.423499e-03 -1.695627e-03
-3.017590e-05 1.424816e-03 -1.733227e-03
-4.142158e-05 1.421205e-03 -1.749719e-03
-3.596075e-05 1.416753e-03 -1.705340e-03
-4.734816e-05 1.411697e-03 -1.667548e-03
-7.418502e-05 1.403435e-03 -1.696541e-03
-1.079371e-04 1.392087e-03 -1.751161e-03
-9.633522e-05 1.377984e-03 -1.710436e-03
-1.465531e-04 1.364351e-03 -1.681684e-03
-2.143444e-04 1.342278e-03 -1.688848e-03
-2.537883e-04 1.310322e-03 -1.759864e-03
6.334502e-05 1.275280e-03 -1.718706e-03
3.611458e-04 1.285054e-03 -1.676395e-03
4.058381e-04 1.336476e-03 -1.701445e-03
3.192694e-04 1.394966e-03 -1.729573e-03
3.401642e-04 1.441913e-03 -1.705869e-03
3.692411e-04 1.491401e-03 -1.660336e-03
2.456178e-04 1.543527e-03 -1.682213e-03
6.199396e-05 1.578148e-03 -1.719668e-03
-3.425698e-05 1.587420e-03 -1.731833e-03
-2.791519e-05 1.583482e-03 -1.683848e-03
-1.178349e-04 1.578923e-03 -1.724668e-03
-1.335456e-04 1.562371e-03 -1.721639e-03
-1.484851e-04 1.543221e-03 -1.730631e-03
-9.221056e-05 1.522527e-03 -1.679761e-03
-8.002906e-05 1.508374e-03 -1.672789e-03
-1.328679e-04 1.495486e-03 -1.722457e-03
-1.345809e-04 1.476476e-03 -1.732169e-03
-1.036667e-04 1.457823e-03 -1.717264e-03
-7.350290e-05 1.443381e-03 -1.696733e-03
-6.502429e-05 1.432354e-03 -1.702167e-03
-8.943705e-05 1.422437e-03 -1.728322e-03
-6.103621e-05 1.410095e-03 -1.704811e-03
-2.484612e-05 1.401359e-03 -1.683703e-03
-4.299918e-05 1.397010e-03 -1.698560e-03
-8.149526e-05 1.390214e-03 -1.741978e-03
-3.756003e-05 1.379455e-03 -1.715485e-03
-3.889709e-06 1.374489e-03 -1.687309e-03
-1.718912e-05 1.373364e-03 -1.687838e-03
-8.224567e-05 1.369953e-03 -1.742074e-03
-3.948750e-05 1.359024e-03 -1.711783e-03
-7.897504e-06 1.353591e-03 -1.681588e-03
-2.748025e-05 1.351729e-03 -1.706446e-03
-6.435672e-05 1.347545e-03 -1.740920e-03
-2.866021e-05 1.339110e-03 -1.725967e-03
2.871023e-05 1.335687e-03 -1.669471e-03
2.441010e-05 1.338737e-03 -1.662115e-03
-6.396119e-05 1.340562e-03 -1.738468e-03
-5.222116e-05 1.332091e-03 -1.741929e-03
1.294694e-05 1.325775e-03 -1.696541e-03
1.396740e-05 1.327543e-03 -1.687983e-03
-2.541251e-05 1.328843e-03 -1.728755e-03
-3.096190e-05 1.325593e-03 -1.718370e-03
-1.756386e-05 1.321427e-03 -1.708177e-03
6.238650e-06 1.319164e-03 -1.685675e-03
-2.675350e-05 1.319318e-03 -1.712167e-03
-5.103751e-05 1.315282e-03 -1.738564e-03
-3.540651e-06 1.308846e-03 -1.706205e-03
3.313803e-05 1.308516e-03 -1.678366e-03
-2.150661e-05 1.312388e-03 -1.712985e-03
-3.627616e-05 1.309175e-03 -1.720053e-03
-4.067128e-05 1.304146e-03 -1.729092e-03
-1.234314e-05 1.299185e-03 -1.702070e-03
-3.852002e-05 1.297331e-03 -1.705869e-03
-8.548112e-05 1.291403e-03 -1.735150e-03
-2.215484e-05 1.279668e-03 -1.696156e-03
6.809581e-06 1.276137e-03 -1.665961e-03
-1.551955e-05 1.275821e-03 -1.683367e-03
-6.260643e-05 1.272518e-03 -1.731352e-03
-4.158093e-05 1.263994e-03 -1.718418e-03
-2.200507e-05 1.258410e-03 -1.702936e-03
-1.449858e-05 1.255279e-03 -1.694473e-03
-3.696539e-05 1.252599e-03 -1.709282e-03
-5.299212e-05 1.246990e-03 -1.735102e-03
-2.089623e-05 1.240280e-03 -1.708177e-03
6.450759e-06 1.237503e-03 -1.677164e-03
-4.620615e-05 1.237319e-03 -1.718226e-03
-6.668715e-05 1.230682e-03 -1.743372e-03
-9.300871e-06 1.222194e-03 -1.708032e-03
1.595258e-05 1.221077e-03 -1.681732e-03
-1.801606e-05 1.222495e-03 -1.710821e-03
-5.846782e-05 1.219674e-03 -1.757171e-03
-4.020761e-06 1.212779e-03 -1.715148e-03
3.787905e-05 1.212662e-03 -1.679664e-03
-9.774770e-06 1.217235e-03 -1.724284e-03
-3.051326e-05 1.216096e-03 -1.743468e-03
-1.141420e-05 1.212672e-03 -1.733900e-03
3.582721e-05 1.212069e-03 -1.695147e-03
2.395614e-05 1.216921e-03 -1.708032e-03
1.310722e-05 1.220125e-03 -1.725149e-03
5.836191e-05 1.222326e-03 -1.692262e-03
7.041500e-05 1.230322e-03 -1.669952e-03
4.645172e-05 1.239380e-03 -1.688127e-03
7.203034e-06 1.245261e-03 -1.726544e-03
3.257475e-05 1.246670e-03 -1.725245e-03
8.349451e-05 1.252101e-03 -1.680290e-03
8.543195e-05 1.263531e-03 -1.659663e-03
-3.813378e-06 1.274163e-03 -1.735919e-03
1.900405e-05 1.274329e-03 -1.723755e-03
3.730042e-05 1.277670e-03 -1.710533e-03
5.721123e-05 1.283482e-03 -1.681203e-03
-3.295687e-06 1.290859e-03 -1.728803e-03
-1.763776e-05 1.290825e-03 -1.749719e-03
3.429013e-05 1.289671e-03 -1.703080e-03
5.179044e-05 1.294721e-03 -1.680241e-03
1.433303e-05 1.301310e-03 -1.712360e-03
-3.582653e-05 1.303244e-03 -1.767605e-03
3.444081e-05 1.300001e-03 -1.692839e-03
8.813481e-05 1.304678e-03 -1.634372e-03
-2.341996e-05 1.314974e-03 -1.726447e-03
-2.708647e-05 1.311957e-03 -1.726544e-03
-2.636212e-06 1.308470e-03 -1.710581e-03
1.922779e-05 1.308387e-03 -1.682838e-03
1.411033e-05 1.310476e-03 -1.685434e-03
-4.452189e-05 1.311507e-03 -1.733371e-03
-2.721868e-05 1.305695e-03 -1.718995e-03
-4.721586e-06 1.302286e-03 -1.696397e-03
-1.386759e-05 1.301431e-03 -1.700964e-03
-4.933249e-05 1.299007e-03 -1.726928e-03
-3.945323e-05 1.292206e-03 -1.728659e-03
1.523477e-05 1.287282e-03 -1.685242e-03
5.663201e-06 1.288968e-03 -1.684905e-03
-2.239043e-05 1.288894e-03 -1.704570e-03
-5.634499e-05 1.285201e-03 -1.743228e-03
-7.633975e-06 1.278273e-03 -1.709427e-03
1.511032e-05 1.277502e-03 -1.691444e-03
-2.655975e-05 1.279120e-03 -1.724476e-03
-3.315449e-05 1.275521e-03 -1.738227e-03
8.656060e-06 1.271695e-03 -1.697310e-03
8.834725e-07 1.272833e-03 -1.702118e-03
-1.697557e-05 1.272806e-03 -1.715581e-03
-2.530892e-05 1.270272e-03 -1.734958e-03
1.485073e-05 1.267375e-03 -1.705676e-03
7.937995e-06 1.269673e-03 -1.691156e-03
-1.713628e-05 1.270321e-03 -1.720774e-03
-3.353483e-05 1.267969e-03 -1.747267e-03
1.620785e-05 1.264239e-03 -1.692983e-03
2.740534e-05 1.266216e-03 -1.677645e-03
4.978686e-06 1.269266e-03 -1.701205e-03
-1.871119e-05 1.269492e-03 -1.732698e-03
-4.040683e-05 1.267340e-03 -1.756450e-03
1.678331e-05 1.263280e-03 -1.701638e-03
1.150484e-05 1.265673e-03 -1.688704e-03
-4.020036e-05 1.266412e-03 -1.743324e-03
-1.789560e-05 1.261417e-03 -1.734092e-03
3.815324e-05 1.259700e-03 -1.697695e-03
6.461576e-05 1.265066e-03 -1.663077e-03
-1.578245e-05 1.272718e-03 -1.702888e-03
-5.057968e-05 1.269820e-03 -1.741449e-03
5.789409e-06 1.263552e-03 -1.703320e-03
2.779016e-05 1.264437e-03 -1.679616e-03
-3.032532e-05 1.267403e-03 -1.730871e-03
-3.020136e-05 1.263385e-03 -1.741737e-03
2.596083e-05 1.260016e-03 -1.687742e-03
3.454048e-05 1.263265e-03 -1.684040e-03
-2.113778e-05 1.267448e-03 -1.723803e-03
-1.578248e-05 1.264544e-03 -1.726592e-03
1.220770e-05 1.262662e-03 -1.708032e-03
2.665284e-05 1.264613e-03 -1.688271e-03
-2.330992e-06 1.267873e-03 -1.706686e-03
-2.668678e-05 1.267131e-03 -1.737025e-03
6.129298e-06 1.263981e-03 -1.716735e-03
1.017757e-05 1.265317e-03 -1.708561e-03
1.223910e-05 1.266958e-03 -1.700676e-03
-1.331368e-05 1.268182e-03 -1.708369e-03
-2.455767e-05 1.265867e-03 -1.727361e-03
3.376864e-05 1.263026e-03 -1.681011e-03
2.495891e-05 1.267172e-03 -1.682405e-03
-2.757250e-05 1.269699e-03 -1.727073e-03
-2.650256e-05 1.265985e-03 -1.732938e-03
1.329480e-05 1.263017e-03 -1.697454e-03
9.240258e-06 1.264812e-03 -1.695147e-03
-9.411426e-06 1.265577e-03 -1.721110e-03
-2.975368e-05 1.264284e-03 -1.729813e-03
7.197801e-06 1.260652e-03 -1.692743e-03
2.530541e-05 1.261393e-03 -1.681828e-03
-4.007783e-06 1.264117e-03 -1.717889e-03
-2.216272e-05 1.263520e-03 -1.740535e-03
1.494000e-05 1.261324e-03 -1.701301e-03
1.310506e-05 1.263496e-03 -1.698464e-03
-2.730440e-05 1.265103e-03 -1.729332e-03
-3.435316e-05 1.261526e-03 -1.735487e-03
-4.073319e-06 1.257258e-03 -1.728851e-03
3.282070e-05 1.257579e-03 -1.687502e-03
1.646690e-05 1.261720e-03 -1.684521e-03
-5.363965e-05 1.262927e-03 -1.753757e-03
-4.448004e-05 1.256412e-03 -1.761162e-03
1.925561e-05 1.251912e-03 -1.701109e-03
2.408758e-05 1.254580e-03 -1.683175e-03
-5.044170e-05 1.256844e-03 -1.758133e-03
-1.089244e-05 1.250807e-03 -1.736737e-03
6.985540e-05 1.250211e-03 -1.659326e-03
1.981772e-05 1.258802e-03 -1.672356e-03
-5.624253e-05 1.260145e-03 -1.736881e-03
-5.789192e-05 1.252467e-03 -1.758614e-03
3.423539e-05 1.245731e-03 -1.679568e-03
1.519465e-05 1.249866e-03 -1.693416e-03
-4.646017e-06 1.251388e-03 -1.718033e-03
-2.505782e-05 1.250549e-03 -1.746882e-03
2.911343e-05 1.248113e-03 -1.682165e-03
1.978415e-05 1.251624e-03 -1.676828e-03
-1.176611e-05 1.253316e-03 -1.714283e-03
-4.022417e-05 1.251338e-03 -1.750344e-03
1.054175e-05 1.246730e-03 -1.701397e-03
2.295338e-05 1.248215e-03 -1.675578e-03
-3.776296e-05 1.250416e-03 -1.705196e-03
-8.291829e-05 1.244365e-03 -1.738468e-03
-4.397104e-05 1.233016e-03 -1.701926e-03
-4.757514e-05 1.226475e-03 -1.700916e-03
-2.539947e-05 1.219397e-03 -1.677405e-03
-9.070894e-05 1.214220e-03 -1.728563e-03
-6.910478e-05 1.201318e-03 -1.725630e-03
-3.416384e-05 1.191956e-03 -1.676058e-03
-6.483860e-05 1.185994e-03 -1.695483e-03
-1.015382e-04 1.175814e-03 -1.727120e-03
-8.807384e-05 1.161244e-03 -1.735391e-03
5.199220e-06 1.149420e-03 -1.675962e-03
-6.215796e-06 1.149296e-03 -1.690675e-03
-3.281360e-05 1.147622e-03 -1.724572e-03
4.098468e-05 1.143060e-03 -1.695531e-03
7.316872e-05 1.148619e-03 -1.677837e-03
9.291468e-05 1.158588e-03 -1.666683e-03
1.715877e-06 1.170645e-03 -1.748757e-03
6.423448e-05 1.172075e-03 -1.707167e-03
1.269998e-04 1.181479e-03 -1.651777e-03
7.708227e-05 1.198413e-03 -1.686252e-03
1.251958e-05 1.209028e-03 -1.734814e-03
1.167673e-05 1.211554e-03 -1.747074e-03
7.470195e-05 1.214640e-03 -1.699666e-03
1.167894e-04 1.225683e-03 -1.664375e-03
4.218326e-05 1.241390e-03 -1.703080e-03
-1.162727e-05 1.247118e-03 -1.748036e-03
3.518648e-05 1.246752e-03 -1.717408e-03
4.566997e-05 1.252615e-03 -1.695675e-03
-7.885188e-06 1.259147e-03 -1.717024e-03
-6.268547e-06 1.258108e-03 -1.716591e-03
5.536689e-06 1.257265e-03 -1.711639e-03
3.276795e-05 1.258498e-03 -1.678414e-03
1.013106e-05 1.262575e-03 -1.712696e-03
1.149833e-05 1.264093e-03 -1.721255e-03
7.950036e-07 1.265997e-03 -1.719139e-03
1.337333e-05 1.266738e-03 -1.693800e-03
-3.091279e-05 1.268568e-03 -1.692069e-03
-1.241821e-04 1.263415e-03 -1.721880e-03
-1.431768e-04 1.245484e-03 -1.736593e-03
-4.525587e-05 1.225743e-03 -1.689040e-03
-4.783567e-05 1.218851e-03 -1.670770e-03
-1.671192e-04 1.210527e-03 -1.712792e-03
-2.831543e-04 1.185973e-03 -1.753373e-03
-2.720284e-04 1.146287e-03 -1.713802e-03
-5.478686e-06 1.107209e-03 -1.650624e-03
2.066107e-04 1.104416e-03 -1.745343e-03
3.549462e-04 1.135567e-03 -1.781356e-03
4.473899e-04 1.189963e-03 -1.680049e-03
3.896877e-04 1.254637e-03 -1.682117e-03
3.471112e-04 1.310773e-03 -1.709859e-03
2.616611e-04 1.361172e-03 -1.727120e-03
1.642349e-04 1.399843e-03 -1.701974e-03
6.714165e-05 1.423900e-03 -1.673222e-03
-5.040731e-05 1.432690e-03 -1.715293e-03
-1.493380e-04 1.425314e-03 -1.768086e-03
-1.244817e-04 1.405362e-03 -1.730775e-03
-8.648935e-05 1.388188e-03 -1.662932e-03
-1.569762e-04 1.374197e-03 -1.715148e-03
-1.992677e-04 1.351243e-03 -1.772221e-03
-1.135042e-04 1.323993e-03 -1.720149e-03
-5.946249e-05 1.307935e-03 -1.683511e-03
-8.188698e-05 1.298627e-03 -1.715100e-03
-1.114757e-04 1.286626e-03 -1.742362e-03
-9.303245e-05 1.271019e-03 -1.728563e-03
-4.056698e-05 1.258124e-03 -1.689521e-03
-4.102614e-05 1.251804e-03 -1.683415e-03
-6.812188e-05 1.244714e-03 -1.717120e-03
-7.026870e-05 1.234504e-03 -1.737843e-03
-2.679255e-05 1.225166e-03 -1.705292e-03
-2.009492e-05 1.221449e-03 -1.672452e-03
-8.697711e-05 1.217123e-03 -1.734188e-03
-7.914443e-05 1.204770e-03 -1.749815e-03
-3.337227e-05 1.194434e-03 -1.717072e-03
1.606380e-05 1.190146e-03 -1.687117e-03
-1.554187e-05 1.191749e-03 -1.708898e-03
-6.467914e-05 1.188911e-03 -1.753854e-03
-5.899439e-06 1.180712e-03 -1.717937e-03
6.443521e-06 1.180389e-03 -1.692791e-03
-3.106312e-05 1.180826e-03 -1.712600e-03
-5.028041e-05 1.175906e-03 -1.738708e-03
7.757230e-06 1.169220e-03 -1.688223e-03
-8.305094e-06 1.169752e-03 -1.702599e-03
-7.749694e-06 1.168475e-03 -1.697743e-03
-4.585478e-05 1.166529e-03 -1.731977e-03
-2.275169e-05 1.160158e-03 -1.730727e-03
4.760732e-05 1.157690e-03 -1.668894e-03
-7.212621e-06 1.163419e-03 -1.691204e-03
-8.863967e-05 1.161377e-03 -1.769240e-03
-4.357779e-05 1.150068e-03 -1.741881e-03
-6.564326e-07 1.144842e-03 -1.697214e-03
5.104157e-05 1.144638e-03 -1.641104e-03
-5.195162e-05 1.149403e-03 -1.721110e-03
-8.262904e-05 1.141663e-03 -1.759960e-03
1.101270e-06 1.131305e-03 -1.699618e-03
2.975447e-05 1.131452e-03 -1.672549e-03
-6.894518e-05 1.134374e-03 -1.732458e-03
-7.923857e-05 1.124570e-03 -1.741978e-03
-4.035341e-05 1.113907e-03 -1.728659e-03
-3.944727e-06 1.108993e-03 -1.693512e-03
-1.753496e-05 1.107870e-03 -1.695820e-03
-7.947931e-05 1.104231e-03 -1.753661e-03
-4.448399e-05 1.093805e-03 -1.733419e-03
1.637135e-05 1.088436e-03 -1.679568e-03
-1.835021e-05 1.089837e-03 -1.698224e-03
-6.880187e-05 1.086198e-03 -1.748036e-03
-3.163814e-05 1.077065e-03 -1.715052e-03
9.070216e-06 1.072802e-03 -1.683367e-03
-2.583177e-05 1.073375e-03 -1.713562e-03
-5.179747e-05 1.069289e-03 -1.739429e-03
-4.366939e-05 1.062219e-03 -1.744670e-03
1.016554e-05 1.057138e-03 -1.696012e-03
-1.677763e-05 1.058358e-03 -1.713658e-03
-5.691328e-05 1.055653e-03 -1.744189e-03
-4.680046e-05 1.047848e-03 -1.734429e-03
-2.833618e-06 1.041770e-03 -1.695291e-03
2.693007e-05 1.041095e-03 -1.670144e-03
-3.146796e-05 1.043382e-03 -1.734669e-03
-1.881426e-05 1.038950e-03 -1.739141e-03
3.374558e-05 1.036972e-03 -1.699618e-03
-1.654495e-05 1.041778e-03 -1.728467e-03
-5.938844e-06 1.039923e-03 -1.723466e-03
4.752301e-06 1.038896e-03 -1.730919e-03
2.789485e-05 1.039986e-03 -1.712552e-03
7.428301e-05 1.044372e-03 -1.679280e-03
4.574993e-05 1.054153e-03 -1.696878e-03
-2.999062e-05 1.059744e-03 -1.774769e-03
4.583692e-05 1.057239e-03 -1.720053e-03
6.823944e-05 1.064503e-03 -1.695627e-03
5.200931e-05 1.074098e-03 -1.702263e-03
5.475290e-06 1.080821e-03 -1.750488e-03
6.406667e-05 1.082523e-03 -1.705147e-03
7.744691e-05 1.091837e-03 -1.684617e-03
2.997947e-05 1.102475e-03 -1.709282e-03
-7.074163e-06 1.106352e-03 -1.738900e-03
1.185889e-05 1.105690e-03 -1.741064e-03
4.575126e-05 1.108531e-03 -1.710052e-03
3.285221e-05 1.115469e-03 -1.701013e-03
-5.572909e-06 1.119564e-03 -1.730775e-03
-2.720533e-06 1.118779e-03 -1.736112e-03
3.425770e-05 1.119159e-03 -1.703176e-03
5.481515e-05 1.124181e-03 -1.677164e-03
7.778994e-06 1.130781e-03 -1.711013e-03
-3.486682e-05 1.131260e-03 -1.745151e-03
3.443746e-05 1.127202e-03 -1.685434e-03
1.960735e-05 1.131598e-03 -1.694858e-03
-5.394440e-06 1.133857e-03 -1.714475e-03
-2.615250e-05 1.132642e-03 -1.726303e-03
-4.389028e-05 1.128984e-03 -1.749671e-03
6.361391e-06 1.124169e-03 -1.710677e-03
1.602398e-05 1.125132e-03 -1.700436e-03
-3.752472e-05 1.126513e-03 -1.741305e-03
-2.444560e-05 1.121608e-03 -1.737121e-03
1.413361e-05 1.119089e-03 -1.701926e-03
-2.135999e-05 1.120926e-03 -1.733756e-03
-5.664535e-05 1.118083e-03 -1.764239e-03
-2.152371e-06 1.111094e-03 -1.725871e-03
7.392470e-05 1.111322e-03 -1.665577e-03
3.221201e-05 1.120724e-03 -1.687646e-03
-6.790807e-05 1.124201e-03 -1.752363e-03
-5.967695e-05 1.115009e-03 -1.770297e-03
5.866899e-05 1.108307e-03 -1.667933e-03
-1.143892e-05 1.115573e-03 -1.715581e-03
-3.227415e-05 1.113714e-03 -1.736160e-03
-7.490788e-06 1.109173e-03 -1.718995e-03
-5.578083e-06 1.108125e-03 -1.713658e-03
1.782552e-05 1.107608e-03 -1.690964e-03
-2.593152e-05 1.109247e-03 -1.735919e-03
-2.100604e-05 1.105619e-03 -1.740247e-03
2.230741e-05 1.103271e-03 -1.699810e-03
2.151204e-05 1.106326e-03 -1.689185e-03
-2.300901e-05 1.108584e-03 -1.730150e-03
-4.161346e-05 1.105215e-03 -1.746978e-03
4.405799e-06 1.099968e-03 -1.716302e-03
2.000627e-05 1.100956e-03 -1.695435e-03
-2.361589e-05 1.103277e-03 -1.728803e-03
-3.556666e-05 1.099794e-03 -1.751065e-03
-3.470525e-06 1.095440e-03 -1.731592e-03
3.421029e-05 1.095744e-03 -1.691829e-03
3.470659e-05 1.100151e-03 -1.688463e-03
-2.557019e-05 1.103836e-03 -1.751017e-03
4.927058e-05 1.100877e-03 -1.687886e-03
4.777096e-05 1.107329e-03 -1.680963e-03
8.729988e-06 1.113434e-03 -1.706157e-03
-3.380201e-05 1.114088e-03 -1.740583e-03
-3.662512e-05 1.109506e-03 -1.748036e-03
1.211354e-05 1.105338e-03 -1.708513e-03
6.972450e-06 1.107211e-03 -1.716206e-03
-3.497603e-05 1.108098e-03 -1.748036e-03
-3.278759e-06 1.103566e-03 -1.736496e-03
5.155058e-05 1.103789e-03 -1.685915e-03
1.999011e-05 1.110589e-03 -1.695531e-03
-3.979795e-05 1.112679e-03 -1.747074e-03
-3.381410e-05 1.107416e-03 -1.747747e-03
-6.945199e-06 1.103386e-03 -1.732554e-03
4.952716e-05 1.103265e-03 -1.687213e-03
1.779220e-05 1.109565e-03 -1.696733e-03
-1.962929e-05 1.110973e-03 -1.734765e-03
4.736023e-05 1.108557e-03 -1.687213e-03
4.384871e-05 1.114857e-03 -1.673126e-03
7.711323e-06 1.119935e-03 -1.700436e-03
-5.111346e-05 1.120100e-03 -1.754912e-03
-1.249541e-05 1.113696e-03 -1.734477e-03
4.213059e-05 1.112825e-03 -1.698128e-03
1.718097e-05 1.118638e-03 -1.716399e-03
-5.138807e-06 1.120861e-03 -1.730582e-03
-1.224442e-05 1.120224e-03 -1.739045e-03
3.659420e-05 1.119468e-03 -1.690050e-03
-2.039278e-05 1.124239e-03 -1.728130e-03
3.630658e-05 1.121485e-03 -1.683222e-03
1.060723e-05 1.125260e-03 -1.714187e-03
4.705415e-05 1.126942e-03 -1.673895e-03
1.341594e-05 1.132789e-03 -1.708369e-03
-4.295697e-05 1.134398e-03 -1.765633e-03
1.450863e-05 1.129484e-03 -1.723178e-03
3.443591e-05 1.131963e-03 -1.690483e-03
-1.101132e-05 1.136493e-03 -1.723418e-03
-2.571879e-05 1.135142e-03 -1.729525e-03
-4.145452e-05 1.131405e-03 -1.757315e-03
-4.544117e-06 1.126708e-03 -1.728851e-03
4.517658e-05 1.126944e-03 -1.683367e-03
-4.845522e-06 1.132492e-03 -1.716783e-03
-7.128859e-06 1.131361e-03 -1.728467e-03
2.988689e-05 1.130598e-03 -1.696974e-03
4.022559e-05 1.134683e-03 -1.688896e-03
-8.024040e-06 1.139805e-03 -1.717024e-03
-5.509044e-05 1.138309e-03 -1.759960e-03
1.965226e-05 1.131553e-03 -1.709282e-03
3.637663e-05 1.134542e-03 -1.689377e-03
2.279476e-05 1.139229e-03 -1.689377e-03
-4.688870e-05 1.141311e-03 -1.761210e-03
-3.149378e-05 1.135676e-03 -1.743612e-03
1.952159e-05 1.132260e-03 -1.705244e-03
4.953412e-05 1.135136e-03 -1.673270e-03
-5.595613e-05 1.140617e-03 -1.773182e-03
8.929320e-07 1.134013e-03 -1.734477e-03
2.554704e-05 1.134938e-03 -1.706446e-03
2.088161e-05 1.138738e-03 -1.701541e-03
-4.501697e-06 1.141139e-03 -1.721880e-03
-3.367358e-06 1.140196e-03 -1.731977e-03
3.181208e-05 1.140309e-03 -1.687502e-03
2.525398e-05 1.144366e-03 -1.688800e-03
-3.981332e-05 1.147024e-03 -1.752844e-03
-4.880610e-05 1.141977e-03 -1.764191e-03
1.762023e-05 1.136422e-03 -1.687358e-03
1.054001e-05 1.138406e-03 -1.674231e-03
-6.133390e-05 1.138494e-03 -1.725726e-03
-1.046449e-04 1.129253e-03 -1.766451e-03
-3.922905e-05 1.115476e-03 -1.711061e-03
-3.180098e-05 1.109923e-03 -1.697358e-03
-5.018243e-05 1.104696e-03 -1.712744e-03
-9.878157e-05 1.096656e-03 -1.759527e-03
-6.924872e-05 1.083327e-03 -1.733660e-03
-1.230547e-05 1.074128e-03 -1.667019e-03
-5.810467e-05 1.070837e-03 -1.702070e-03
-7.659963e-05 1.061348e-03 -1.751353e-03
-4.924246e-05 1.050867e-03 -1.738179e-03
-3.708843e-06 1.044568e-03 -1.713417e-03
5.154321e-05 1.044273e-03 -1.680241e-03
2.484801e-05 1.050293e-03 -1.721351e-03
2.208445e-05 1.053682e-03 -1.741737e-03
7.615175e-05 1.057936e-03 -1.701205e-03
6.537932e-05 1.069046e-03 -1.703561e-03
4.102817e-05 1.078059e-03 -1.728948e-03
5.157683e-05 1.084002e-03 -1.735342e-03
7.886340e-05 1.092296e-03 -1.712360e-03
6.197276e-05 1.104186e-03 -1.710821e-03
4.586618e-05 1.113080e-03 -1.725967e-03
5.382848e-05 1.119639e-03 -1.739381e-03
9.316627e-05 1.128286e-03 -1.690723e-03
7.925953e-05 1.141519e-03 -1.679664e-03
-1.938227e-05 1.151932e-03 -1.753998e-03
2.938314e-05 1.149950e-03 -1.725390e-03
6.186120e-05 1.154398e-03 -1.699330e-03
4.109124e-05 1.163292e-03 -1.702599e-03
1.916658e-05 1.169061e-03 -1.706494e-03
-1.171568e-05 1.171095e-03 -1.741064e-03
3.330188e-05 1.169975e-03 -1.716543e-03
6.585390e-05 1.175263e-03 -1.670866e-03
1.611424e-05 1.183605e-03 -1.712504e-03
-1.772724e-05 1.185520e-03 -1.730150e-03
-3.963482e-05 1.183003e-03 -1.745632e-03
-2.372819e-05 1.178491e-03 -1.705532e-03
-4.632774e-05 1.175031e-03 -1.677982e-03
-1.117235e-04 1.166574e-03 -1.750632e-03
-5.221734e-05 1.150918e-03 -1.735775e-03
-3.278929e-05 1.144135e-03 -1.677164e-03
-1.663567e-04 1.138364e-03 -1.712504e-03
-2.359998e-04 1.113624e-03 -1.730727e-03
-2.384975e-04 1.078859e-03 -1.760056e-03
6.150047e-05 1.045278e-03 -1.725582e-03
3.812745e-04 1.055196e-03 -1.672020e-03
3.805470e-04 1.109822e-03 -1.722312e-03
3.013992e-04 1.165603e-03 -1.737698e-03
3.423289e-04 1.210690e-03 -1.701301e-03
3.320332e-04 1.261037e-03 -1.701349e-03
2.391503e-04 1.309542e-03 -1.711302e-03
7.706904e-05 1.344112e-03 -1.759239e-03
1.913674e-05 1.356799e-03 -1.719716e-03
-2.066843e-06 1.360165e-03 -1.675626e-03
-8.382386e-05 1.358646e-03 -1.710244e-03
-1.366045e-04 1.345652e-03 -1.738948e-03
-1.568645e-04 1.326005e-03 -1.750248e-03
-1.264123e-04 1.304447e-03 -1.727842e-03
-1.084195e-04 1.286551e-03 -1.713369e-03
-1.340150e-04 1.270075e-03 -1.739910e-03
-9.529628e-05 1.250684e-03 -1.722120e-03
-4.432845e-05 1.237027e-03 -1.690483e-03
-7.373447e-05 1.229940e-03 -1.712600e-03
-1.045213e-04 1.218608e-03 -1.752459e-03
-6.602665e-05 1.203914e-03 -1.734525e-03
-2.654892e-05 1.194871e-03 -1.699137e-03
-7.876962e-06 1.190768e-03 -1.678318e-03
-8.552702e-05 1.188074e-03 -1.750248e-03
-3.973615e-05 1.176084e-03 -1.719091e-03
-3.344313e-05 1.170224e-03 -1.719572e-03
-8.809404e-06 1.165880e-03 -1.695675e-03
-5.053647e-05 1.163805e-03 -1.734765e-03
-7.813212e-05 1.156398e-03 -1.761883e-03
-1.078918e-07 1.146313e-03 -1.706734e-03
1.272487e-05 1.146318e-03 -1.708609e-03
-3.763263e-05 1.147969e-03 -1.729717e-03
-5.303442e-05 1.142263e-03 -1.745199e-03
3.220657e-05 1.135105e-03 -1.692406e-03
2.751745e-05 1.139315e-03 -1.694377e-03
-5.366085e-05 1.142746e-03 -1.733034e-03
-2.459072e-05 1.134927e-03 -1.725342e-03
-1.588279e-05 1.131124e-03 -1.738660e-03
2.911486e-05 1.129831e-03 -1.695147e-03
-4.271171e-05 1.133576e-03 -1.730775e-03
-2.304585e-05 1.127372e-03 -1.727746e-03
1.098528e-05 1.123873e-03 -1.708609e-03
-1.927073e-05 1.125328e-03 -1.728515e-03
-1.173000e-05 1.123172e-03 -1.716927e-03
-4.445627e-05 1.121136e-03 -1.746545e-03
-1.502561e-05 1.115073e-03 -1.730582e-03
-8.143066e-06 1.113335e-03 -1.725053e-03
-2.562798e-05 1.112693e-03 -1.730967e-03
-2.210331e-05 1.109120e-03 -1.738708e-03
2.320954e-05 1.106022e-03 -1.709956e-03
5.087830e-05 1.109078e-03 -1.678559e-03
1.565219e-06 1.115503e-03 -1.696397e-03
-6.824316e-05 1.114872e-03 -1.745536e-03
-7.835085e-05 1.105219e-03 -1.771403e-03
-2.762197e-05 1.095311e-03 -1.741352e-03
4.680507e-06 1.092337e-03 -1.697262e-03
-1.049612e-05 1.092272e-03 -1.710340e-03
-3.496534e-05 1.089912e-03 -1.737939e-03
-1.089515e-05 1.085123e-03 -1.716687e-03
1.078985e-05 1.083728e-03 -1.684569e-03
-2.364520e-05 1.084218e-03 -1.711110e-03
-7.886741e-05 1.079963e-03 -1.774288e-03
-1.579491e-05 1.069925e-03 -1.734237e-03
3.912790e-05 1.068324e-03 -1.687117e-03
-3.792859e-05 1.073115e-03 -1.734140e-03
-2.725779e-05 1.067685e-03 -1.730005e-03
-1.523317e-05 1.063593e-03 -1.729813e-03
2.176252e-05 1.061888e-03 -1.695772e-03
3.524653e-05 1.064512e-03 -1.691300e-03
-4.422680e-05 1.068354e-03 -1.757315e-03
-3.643810e-05 1.062681e-03 -1.747315e-03
-2.960193e-05 1.058297e-03 -1.740824e-03
-2.427382e-05 1.054940e-03 -1.738420e-03
-4.743240e-05 1.051702e-03 -1.773086e-03
-2.120002e-05 1.045952e-03 -1.756979e-03
1.957523e-05 1.043978e-03 -1.725726e-03
7.584789e-05 1.047374e-03 -1.677309e-03
3.073981e-05 1.056854e-03 -1.723226e-03
-7.870331e-06 1.060798e-03 -1.774288e-03
6.316881e-05 1.061255e-03 -1.721159e-03
8.783619e-05 1.070870e-03 -1.687983e-03
2.637858e-05 1.082659e-03 -1.743612e-03
2.178350e-05 1.086726e-03 -1.745872e-03
6.537763e-05 1.090443e-03 -1.703272e-03
7.642379e-05 1.099735e-03 -1.690867e-03
2.501419e-05 1.110036e-03 -1.719956e-03
-2.616999e-05 1.113091e-03 -1.780250e-03
6.912466e-05 1.110881e-03 -1.703705e-03
8.946715e-05 1.120686e-03 -1.671779e-03
-5.092561e-06 1.132306e-03 -1.755873e-03
-8.788605e-06 1.132252e-03 -1.779337e-03
4.962259e-05 1.132498e-03 -1.731977e-03
2.973685e-05 1.140316e-03 -1.739670e-03
4.541368e-05 1.145554e-03 -1.713658e-03
3.394866e-05 1.151586e-03 -1.707888e-03
-2.749711e-07 1.155471e-03 -1.744622e-03
4.466281e-05 1.156210e-03 -1.705965e-03
4.158487e-05 1.162558e-03 -1.694233e-03
-4.086755e-05 1.167408e-03 -1.768134e-03
-6.490069e-05 1.162304e-03 -1.801983e-03
7.411515e-05 1.155462e-03 -1.668269e-03
5.394869e-05 1.164810e-03 -1.672308e-03
-2.066191e-05 1.170810e-03 -1.739622e-03
-7.145538e-06 1.167679e-03 -1.744959e-03
4.482380e-06 1.167206e-03 -1.722072e-03
8.328009e-07 1.168210e-03 -1.713658e-03
-2.631224e-05 1.167949e-03 -1.740006e-03
-3.339634e-05 1.164023e-03 -1.744718e-03
4.029435e-05 1.159569e-03 -1.679809e-03
2.302990e-05 1.164332e-03 -1.691396e-03
-1.910849e-06 1.166723e-03 -1.722312e-03
-3.262922e-05 1.165852e-03 -1.763662e-03
-4.537571e-06 1.162138e-03 -1.731833e-03
2.966122e-05 1.162173e-03 -1.683222e-03
-3.478232e-05 1.165361e-03 -1.732554e-03
-5.649151e-05 1.160001e-03 -1.778615e-03
3.647082e-05 1.153151e-03 -1.708417e-03
4.481379e-05 1.158319e-03 -1.692743e-03
2.052748e-05 1.164239e-03 -1.707792e-03
-4.652784e-05 1.166336e-03 -1.762460e-03
-2.494441e-05 1.160283e-03 -1.747411e-03
3.816520e-05 1.157660e-03 -1.680915e-03
2.605068e-05 1.162225e-03 -1.699234e-03
-4.005127e-05 1.164956e-03 -1.760344e-03
-9.427313e-07 1.159745e-03 -1.723322e-03
-1.229353e-06 1.159695e-03 -1.727120e-03
-6.998246e-06 1.160127e-03 -1.728948e-03
-2.940766e-05 1.159121e-03 -1.758950e-03
-1.049573e-05 1.155403e-03 -1.751642e-03
3.468180e-05 1.154796e-03 -1.703224e-03
4.077201e-05 1.159716e-03 -1.694522e-03
-6.081587e-07 1.164699e-03 -1.735871e-03
-7.002319e-05 1.164348e-03 -1.801358e-03
-2.444259e-05 1.156416e-03 -1.765105e-03
6.114913e-05 1.154725e-03 -1.658509e-03
3.242385e-05 1.161622e-03 -1.677501e-03
-2.767403e-05 1.164118e-03 -1.744670e-03
5.338426e-06 1.160340e-03 -1.748084e-03
9.148454e-05 1.162470e-03 -1.661298e-03
1.745032e-06 1.174174e-03 -1.718129e-03
-2.403783e-05 1.173705e-03 -1.744478e-03
1.210843e-05 1.170350e-03 -1.714764e-03
2.985752e-05 1.172217e-03 -1.705580e-03
1.729779e-05 1.176507e-03 -1.718274e-03
-4.166141e-05 1.178490e-03 -1.773615e-03
1.656869e-05 1.173486e-03 -1.724813e-03
7.261503e-05 1.176291e-03 -1.660913e-03
-3.371804e-05 1.185404e-03 -1.742458e-03
-5.924103e-05 1.180780e-03 -1.777029e-03
-2.665287e-05 1.173146e-03 -1.758133e-03
5.168556e-05 1.170487e-03 -1.698560e-03
1.955362e-05 1.177857e-03 -1.722360e-03
-9.907872e-06 1.180586e-03 -1.734573e-03
-1.923722e-05 1.178760e-03 -1.743035e-03
2.494264e-06 1.176502e-03 -1.729044e-03
1.786200e-05 1.177626e-03 -1.720149e-03
-2.628941e-05 1.180091e-03 -1.764960e-03
1.354921e-05 1.176890e-03 -1.723082e-03
5.796465e-05 1.178632e-03 -1.680290e-03
1.834550e-05 1.186230e-03 -1.692069e-03
-2.119635e-05 1.187932e-03 -1.730534e-03
-4.571410e-05 1.184322e-03 -1.769865e-03
3.453877e-05 1.178835e-03 -1.711975e-03
7.010414e-05 1.184091e-03 -1.669327e-03
-1.772071e-05 1.192871e-03 -1.730342e-03
-3.792250e-05 1.189849e-03 -1.743853e-03
-3.949208e-06 1.184436e-03 -1.735871e-03
3.656308e-05 1.184745e-03 -1.700484e-03
1.867818e-05 1.189792e-03 -1.705388e-03
-4.545423e-05 1.191418e-03 -1.767557e-03
-3.637404e-05 1.185608e-03 -1.770922e-03
4.305487e-05 1.182243e-03 -1.705580e-03
2.350871e-05 1.188567e-03 -1.714043e-03
-2.546157e-06 1.191351e-03 -1.743757e-03
1.001413e-05 1.190955e-03 -1.737410e-03
2.894202e-05 1.193087e-03 -1.705196e-03
3.307858e-07 1.197273e-03 -1.732073e-03
-2.822450e-05 1.197365e-03 -1.745680e-03
-4.825237e-06 1.193197e-03 -1.731063e-03
1.374025e-05 1.192711e-03 -1.722793e-03
2.704054e-05 1.195276e-03 -1.719331e-03
-5.859010e-07 1.199055e-03 -1.728611e-03
-2.536857e-05 1.198355e-03 -1.743757e-03
7.717256e-06 1.195079e-03 -1.715725e-03
-5.062181e-06 1.196463e-03 -1.712456e-03
-5.041033e-06 1.195384e-03 -1.699426e-03
-6.863280e-05 1.193057e-03 -1.748853e-03
-4.308496e-05 1.183376e-03 -1.728851e-03
1.169747e-05 1.177637e-03 -1.668414e-03
-4.706704e-05 1.177694e-03 -1.710821e-03
-1.293978e-04 1.169632e-03 -1.794097e-03
-3.743198e-05 1.152480e-03 -1.690819e-03
-3.084219e-05 1.146227e-03 -1.673751e-03
-1.068493e-04 1.140256e-03 -1.739285e-03
-1.329037e-04 1.124336e-03 -1.785202e-03
-1.224200e-05 1.106231e-03 -1.705821e-03
3.202503e-05 1.104179e-03 -1.678222e-03
-1.896579e-05 1.107810e-03 -1.730534e-03
-2.419051e-05 1.104861e-03 -1.747795e-03
1.922857e-05 1.101589e-03 -1.725390e-03
5.104576e-05 1.104727e-03 -1.712552e-03
4.323501e-05 1.112442e-03 -1.729140e-03
5.832912e-05 1.118840e-03 -1.723418e-03
4.994379e-05 1.126840e-03 -1.743660e-03
1.047991e-04 1.135116e-03 -1.714619e-03
1.127743e-04 1.151037e-03 -1.691541e-03
4.956706e-05 1.166596e-03 -1.725342e-03
1.286110e-05 1.173347e-03 -1.751017e-03
6.033567e-05 1.176165e-03 -1.717072e-03
6.547896e-05 1.185543e-03 -1.705436e-03
3.121060e-06 1.194723e-03 -1.755008e-03
1.270300e-05 1.195671e-03 -1.751450e-03
3.898104e-05 1.198338e-03 -1.728082e-03
7.721135e-05 1.204871e-03 -1.688656e-03
1.174911e-05 1.215328e-03 -1.738131e-03
3.606397e-05 1.217025e-03 -1.719812e-03
6.538223e-07 1.221856e-03 -1.742218e-03
5.496737e-05 1.223124e-03 -1.679905e-03
2.557290e-05 1.230113e-03 -1.695868e-03
-5.608966e-05 1.232442e-03 -1.765008e-03
-1.448929e-05 1.225123e-03 -1.741208e-03
2.502267e-05 1.223979e-03 -1.710340e-03
-9.772763e-06 1.227715e-03 -1.716447e-03
-9.761878e-05 1.225649e-03 -1.747555e-03
-1.262570e-04 1.211351e-03 -1.775298e-03
-8.522438e-06 1.194634e-03 -1.708802e-03
-3.037313e-05 1.193406e-03 -1.696589e-03
-1.441961e-04 1.187700e-03 -1.726063e-03
-2.535799e-04 1.165630e-03 -1.750488e-03
-1.965315e-04 1.128872e-03 -1.717264e-03
3.540164e-05 1.099937e-03 -1.727409e-03
2.565323e-04 1.105268e-03 -1.748901e-03
3.438074e-04 1.143726e-03 -1.748276e-03
3.372168e-04 1.195656e-03 -1.717024e-03
3.378725e-04 1.246062e-03 -1.687069e-03
3.019931e-04 1.295020e-03 -1.701638e-03
2.199147e-04 1.338489e-03 -1.752171e-03
1.421296e-04 1.371991e-03 -1.744430e-03
4.293036e-05 1.394406e-03 -1.722986e-03
-3.476212e-05 1.400938e-03 -1.730775e-03
-1.122981e-04 1.395390e-03 -1.759046e-03
-1.309813e-04 1.379502e-03 -1.757556e-03
-8.378967e-05 1.361545e-03 -1.695627e-03
-1.538518e-04 1.348282e-03 -1.746641e-03
-1.360546e-04 1.325581e-03 -1.753180e-03
-9.285114e-05 1.305744e-03 -1.741208e-03
-5.956417e-05 1.292699e-03 -1.713129e-03
-9.409088e-05 1.283713e-03 -1.739285e-03
-1.076232e-04 1.269743e-03 -1.758085e-03
-6.602674e-05 1.254207e-03 -1.739574e-03
-1.049891e-05 1.244933e-03 -1.694089e-03
-5.094891e-05 1.242591e-03 -1.727842e-03
-8.850446e-05 1.234709e-03 -1.771115e-03
-6.493601e-05 1.222392e-03 -1.762845e-03
-1.559013e-05 1.213963e-03 -1.719860e-03
-3.583309e-06 1.211813e-03 -1.703465e-03
9.145585e-06 1.210286e-03 -1.696301e-03
-1.173169e-04 1.209719e-03 -1.812705e-03
-2.235896e-05 1.195009e-03 -1.744189e-03
5.255036e-06 1.192685e-03 -1.700916e-03
-4.533356e-05 1.192500e-03 -1.740727e-03
-3.715424e-05 1.185475e-03 -1.741785e-03
-5.470875e-05 1.179951e-03 -1.755873e-03
8.749019e-06 1.173084e-03 -1.706157e-03
9.226025e-06 1.173761e-03 -1.707936e-03
-4.326659e-05 1.173749e-03 -1.761018e-03
-2.856361e-05 1.167893e-03 -1.744237e-03
1.690637e-05 1.164446e-03 -1.697839e-03
-3.639450e-05 1.166107e-03 -1.742891e-03
-4.816864e-05 1.160669e-03 -1.758373e-03
-2.308984e-05 1.153909e-03 -1.756498e-03
6.557261e-05 1.151600e-03 -1.695050e-03
2.920236e-05 1.160516e-03 -1.710821e-03
-1.512519e-05 1.163830e-03 -1.730390e-03
-6.126727e-05 1.160881e-03 -1.771307e-03
-5.257834e-06 1.153242e-03 -1.728803e-03
-1.512795e-05 1.152871e-03 -1.728371e-03
-3.440627e-05 1.150320e-03 -1.758373e-03
-5.062901e-05 1.145387e-03 -1.786501e-03
2.323592e-05 1.139701e-03 -1.707455e-03
1.752342e-05 1.142818e-03 -1.695339e-03
-3.902733e-05 1.144075e-03 -1.734237e-03
-6.843579e-05 1.137567e-03 -1.772701e-03
-1.337552e-05 1.128521e-03 -1.734237e-03
1.471476e-05 1.127115e-03 -1.705917e-03
-2.538007e-05 1.128456e-03 -1.739381e-03
-5.730119e-05 1.124220e-03 -1.755584e-03
-1.740321e-05 1.116104e-03 -1.714187e-03
-3.025350e-06 1.113265e-03 -1.703561e-03
-3.582917e-05 1.112028e-03 -1.739189e-03
-7.417600e-05 1.106381e-03 -1.767797e-03
-7.789779e-06 1.096009e-03 -1.728178e-03
-5.737045e-06 1.094966e-03 -1.726303e-03
-3.885201e-05 1.094280e-03 -1.738852e-03
-4.734629e-05 1.088301e-03 -1.751209e-03
-3.780154e-05 1.081210e-03 -1.754527e-03
1.969069e-05 1.076461e-03 -1.712696e-03
2.509438e-05 1.079184e-03 -1.714043e-03
-4.107731e-05 1.081984e-03 -1.760777e-03
-2.662090e-05 1.076135e-03 -1.746401e-03
1.151542e-05 1.072665e-03 -1.711302e-03
-1.753369e-05 1.074116e-03 -1.746545e-03
-1.913694e-06 1.071862e-03 -1.721639e-03
-3.795426e-05 1.070447e-03 -1.762508e-03
1.429186e-05 1.065657e-03 -1.742410e-03
3.691398e-05 1.068614e-03 -1.717312e-03
4.567856e-07 1.073578e-03 -1.746978e-03
5.672196e-08 1.073449e-03 -1.764528e-03
5.945925e-05 1.074293e-03 -1.722601e-03
5.836225e-05 1.083275e-03 -1.721495e-03
3.237839e-05 1.091806e-03 -1.736304e-03
2.595803e-05 1.096158e-03 -1.748324e-03
4.609593e-05 1.100157e-03 -1.735535e-03
5.425143e-05 1.107484e-03 -1.727601e-03
4.980961e-05 1.115724e-03 -1.733660e-03
2.051008e-05 1.122666e-03 -1.748228e-03
5.744583e-05 1.125781e-03 -1.711494e-03
9.024734e-05 1.133897e-03 -1.686877e-03
-2.013251e-05 1.146096e-03 -1.772076e-03
-1.238681e-06 1.144078e-03 -1.763951e-03
3.962462e-05 1.144420e-03 -1.746257e-03
4.928742e-05 1.151009e-03 -1.722793e-03
4.515262e-05 1.158461e-03 -1.719235e-03
7.558635e-07 1.164441e-03 -1.751209e-03
-2.503305e-05 1.164555e-03 -1.777125e-03
4.306400e-05 1.162377e-03 -1.722216e-03
3.247878e-05 1.168875e-03 -1.710436e-03
-6.770138e-06 1.172736e-03 -1.740151e-03
-1.766670e-05 1.171276e-03 -1.753902e-03
2.404515e-05 1.169231e-03 -1.724236e-03
3.201466e-05 1.172993e-03 -1.716783e-03
-1.631564e-05 1.177186e-03 -1.755536e-03
-2.758478e-05 1.174848e-03 -1.758854e-03
3.354793e-05 1.171364e-03 -1.699762e-03
1.998008e-06 1.175604e-03 -1.721351e-03
-3.398360e-05 1.175525e-03 -1.752700e-03
-5.238127e-05 1.170459e-03 -1.769480e-03
9.107324e-07 1.163517e-03 -1.733467e-03
4.544195e-05 1.164086e-03 -1.689088e-03
-2.145065e-05 1.169531e-03 -1.741833e-03
-8.323474e-05 1.165973e-03 -1.801454e-03
5.877677e-06 1.155424e-03 -1.725197e-03
3.722317e-05 1.156342e-03 -1.696974e-03
8.299319e-06 1.160985e-03 -1.717504e-03
-1.141419e-05 1.161177e-03 -1.735054e-03
-2.631952e-06 1.158934e-03 -1.741112e-03
1.454549e-05 1.159066e-03 -1.716927e-03
-1.387069e-05 1.161134e-03 -1.733179e-03
-3.010705e-05 1.158714e-03 -1.755056e-03
-2.328367e-05 1.154295e-03 -1.758614e-03
-1.159282e-07 1.151754e-03 -1.731256e-03
8.113976e-06 1.152179e-03 -1.714619e-03
-1.224681e-05 1.152586e-03 -1.735342e-03
2.804487e-07 1.150156e-03 -1.741497e-03
2.290387e-05 1.150419e-03 -1.720149e-03
4.309956e-05 1.153927e-03 -1.693704e-03
-4.377312e-05 1.158918e-03 -1.765489e-03
-1.282755e-05 1.152927e-03 -1.743853e-03
-1.895587e-06 1.151226e-03 -1.742507e-03
3.155359e-05 1.151769e-03 -1.717841e-03
-2.187041e-05 1.156055e-03 -1.754719e-03
-6.378391e-05 1.152869e-03 -1.789337e-03
1.503294e-05 1.144971e-03 -1.739910e-03
4.902367e-05 1.147906e-03 -1.698416e-03
-1.397082e-05 1.154166e-03 -1.752603e-03
-2.860659e-05 1.152118e-03 -1.770970e-03
1.683551e-05 1.148698e-03 -1.732313e-03
2.099170e-05 1.151513e-03 -1.718947e-03
2.885342e-05 1.154470e-03 -1.712792e-03
-2.782908e-05 1.157542e-03 -1.755921e-03
-1.343139e-05 1.153578e-03 -1.755344e-03
3.100660e-05 1.152557e-03 -1.709042e-03
2.892296e-05 1.156756e-03 -1.697983e-03
-2.227549e-06 1.159443e-03 -1.736544e-03
-6.397009e-05 1.158536e-03 -1.807464e-03
4.078085e-05 1.151678e-03 -1.723178e-03
5.708093e-05 1.157976e-03 -1.690242e-03
-8.313062e-06 1.164807e-03 -1.737650e-03
-1.374011e-05 1.163022e-03 -1.752411e-03
1.071557e-05 1.161549e-03 -1.733611e-03
3.320029e-05 1.163682e-03 -1.702551e-03
-2.472446e-05 1.167515e-03 -1.745680e-03
-2.677422e-05 1.163555e-03 -1.763566e-03
3.002995e-05 1.160409e-03 -1.731015e-03
5.320546e-05 1.165362e-03 -1.696252e-03
-9.258857e-06 1.172148e-03 -1.740391e-03
-6.009197e-05 1.170332e-03 -1.782943e-03
1.416804e-06 1.162674e-03 -1.743853e-03
3.180251e-05 1.163685e-03 -1.720822e-03
8.558485e-06 1.168275e-03 -1.732409e-03
-4.098747e-05 1.168921e-03 -1.771018e-03
5.489888e-06 1.163553e-03 -1.735487e-03
5.683164e-05 1.164812e-03 -1.686732e-03
-2.574313e-05 1.172044e-03 -1.751498e-03
-5.562583e-05 1.168270e-03 -1.791309e-03
2.350968e-05 1.161352e-03 -1.720293e-03
2.867885e-05 1.164645e-03 -1.705292e-03
1.114737e-05 1.168378e-03 -1.728948e-03
8.771777e-07 1.169513e-03 -1.740727e-03
-7.843675e-06 1.169195e-03 -1.751978e-03
3.559639e-05 1.168787e-03 -1.707648e-03
-1.705600e-05 1.173743e-03 -1.746209e-03
-2.033895e-05 1.171352e-03 -1.760585e-03
-2.242182e-05 1.168483e-03 -1.773038e-03
2.127327e-05 1.166474e-03 -1.732698e-03
2.657922e-05 1.170159e-03 -1.725293e-03
-2.621822e-05 1.173721e-03 -1.753950e-03
-3.625287e-05 1.169668e-03 -1.771163e-03
1.434368e-06 1.165253e-03 -1.746497e-03
4.605317e-05 1.166408e-03 -1.708561e-03
1.135202e-05 1.172452e-03 -1.730486e-03
-2.954285e-05 1.173200e-03 -1.771980e-03
8.527509e-06 1.169651e-03 -1.738131e-03
2.901990e-05 1.171516e-03 -1.723899e-03
-2.504650e-05 1.175674e-03 -1.761354e-03
-4.242259e-05 1.172088e-03 -1.769336e-03
4.001797e-06 1.166292e-03 -1.727120e-03
6.206794e-05 1.166933e-03 -1.692983e-03
2.935250e-07 1.175144e-03 -1.741208e-03
-3.216206e-05 1.174809e-03 -1.761546e-03
-2.962274e-05 1.170154e-03 -1.773278e-03
1.280659e-05 1.167247e-03 -1.729525e-03
-9.767112e-06 1.169387e-03 -1.732602e-03
-5.273734e-05 1.167305e-03 -1.768230e-03
-5.957974e-05 1.159675e-03 -1.772894e-03
6.368991e-06 1.152049e-03 -1.710869e-03
-1.103187e-05 1.152573e-03 -1.721880e-03
-6.744153e-05 1.150036e-03 -1.755296e-03
-4.299322e-05 1.139674e-03 -1.726784e-03
-3.034256e-05 1.132746e-03 -1.706878e-03
-6.076494e-05 1.127636e-03 -1.727746e-03
-9.454448e-05 1.117998e-03 -1.772221e-03
-9.669102e-05 1.104134e-03 -1.776788e-03
-3.409060e-05 1.090673e-03 -1.728707e-03
-2.424792e-05 1.085782e-03 -1.710340e-03
-7.085864e-05 1.081187e-03 -1.762508e-03
-3.735180e-05 1.070566e-03 -1.769144e-03
2.818263e-05 1.065614e-03 -1.746978e-03
7.841024e-05 1.070680e-03 -1.703945e-03
3.364534e-05 1.081548e-03 -1.732698e-03
2.371362e-05 1.085805e-03 -1.757412e-03
8.260661e-05 1.089562e-03 -1.712215e-03
8.999051e-05 1.101506e-03 -1.708754e-03
7.335811e-05 1.114437e-03 -1.727601e-03
3.308027e-05 1.124568e-03 -1.774529e-03
6.274999e-05 1.130286e-03 -1.737362e-03
4.557550e-05 1.140056e-03 -1.744478e-03
5.951465e-05 1.147705e-03 -1.734092e-03
5.742869e-05 1.156186e-03 -1.736496e-03
3.748092e-05 1.164113e-03 -1.760297e-03
6.040084e-05 1.170763e-03 -1.723899e-03
6.604620e-05 1.179975e-03 -1.716831e-03
-4.902983e-06 1.188948e-03 -1.762412e-03
1.239018e-05 1.188339e-03 -1.747315e-03
4.795962e-05 1.190561e-03 -1.724909e-03
2.457471e-05 1.197935e-03 -1.736160e-03
-3.022697e-05 1.201530e-03 -1.766162e-03
-1.375362e-05 1.197222e-03 -1.750103e-03
2.610909e-05 1.195439e-03 -1.722793e-03
2.714462e-05 1.199451e-03 -1.715870e-03
-1.546088e-05 1.202871e-03 -1.744526e-03
-5.507487e-05 1.200078e-03 -1.767509e-03
-5.285809e-05 1.192524e-03 -1.728322e-03
-3.749602e-05 1.184759e-03 -1.683607e-03
-9.552008e-05 1.177392e-03 -1.765585e-03
-1.454878e-04 1.163268e-03 -1.819532e-03
-8.610861e-05 1.143797e-03 -1.691444e-03
-1.890464e-04 1.129609e-03 -1.705821e-03
-2.546275e-04 1.100229e-03 -1.737746e-03
-1.065120e-04 1.061114e-03 -1.771115e-03
2.412712e-04 1.045667e-03 -1.746545e-03
4.934333e-04 1.082953e-03 -1.681588e-03
3.887282e-04 1.156021e-03 -1.736208e-03
3.177292e-04 1.214278e-03 -1.763422e-03
3.396900e-04 1.262660e-03 -1.752940e-03
3.041056e-04 1.314928e-03 -1.716879e-03
1.642606e-04 1.360775e-03 -1.718851e-03
-1.135629e-05 1.384600e-03 -1.762027e-03
-8.706707e-05 1.383045e-03 -1.778712e-03
-9.051211e-05 1.371536e-03 -1.757075e-03
-8.186962e-05 1.359192e-03 -1.716206e-03
-1.380580e-04 1.345807e-03 -1.754046e-03
-1.668214e-04 1.324662e-03 -1.775971e-03
-1.115228e-04 1.300712e-03 -1.735102e-03
-7.780624e-05 1.284353e-03 -1.716591e-03
-1.222677e-04 1.271742e-03 -1.753277e-03
-1.283106e-04 1.252927e-03 -1.778519e-03
-8.269332e-05 1.234668e-03 -1.764912e-03
-1.651584e-05 1.223688e-03 -1.713706e-03
-4.005652e-05 1.220400e-03 -1.731977e-03
-1.132084e-04 1.213255e-03 -1.791261e-03
-5.023766e-05 1.197501e-03 -1.753084e-03
-9.796100e-06 1.190860e-03 -1.717745e-03
-3.671506e-05 1.188882e-03 -1.742651e-03
-4.213397e-05 1.182761e-03 -1.746305e-03
-3.355681e-05 1.175963e-03 -1.745439e-03
-2.310393e-07 1.171438e-03 -1.714764e-03
-2.669968e-05 1.170934e-03 -1.736160e-03
-7.741781e-05 1.166166e-03 -1.787991e-03
-2.301009e-05 1.155416e-03 -1.756161e-03
1.219498e-05 1.152713e-03 -1.728130e-03
-5.162298e-06 1.154684e-03 -1.726207e-03
-6.879206e-06 1.153036e-03 -1.731207e-03
-5.148042e-05 1.150854e-03 -1.769913e-03
-4.108984e-06 1.144159e-03 -1.742554e-03
2.612172e-05 1.144220e-03 -1.720293e-03
-2.764956e-05 1.147266e-03 -1.753854e-03
-3.958018e-05 1.142704e-03 -1.773567e-03
1.468871e-05 1.137766e-03 -1.732458e-03
3.348338e-05 1.140320e-03 -1.700147e-03
-4.090642e-05 1.143886e-03 -1.768711e-03
-9.405144e-05 1.137795e-03 -1.816647e-03
-1.542505e-05 1.125906e-03 -1.753806e-03
3.580433e-05 1.124585e-03 -1.731977e-03
5.543984e-06 1.129843e-03 -1.744911e-03
-5.887129e-05 1.129925e-03 -1.790347e-03
-2.087682e-05 1.122126e-03 -1.756450e-03
2.182529e-05 1.119908e-03 -1.706590e-03
-2.797467e-05 1.122252e-03 -1.737073e-03
-5.071875e-05 1.117061e-03 -1.773134e-03
-1.444833e-05 1.109783e-03 -1.744959e-03
1.674262e-05 1.108066e-03 -1.705869e-03
-5.143865e-05 1.109704e-03 -1.769768e-03
-3.004533e-05 1.102301e-03 -1.753998e-03
-3.630513e-05 1.097358e-03 -1.760297e-03
1.190191e-05 1.092665e-03 -1.729669e-03
7.154812e-06 1.094527e-03 -1.727649e-03
-4.486175e-05 1.094616e-03 -1.771163e-03
-1.038431e-04 1.087774e-03 -1.825158e-03
-6.993020e-07 1.074878e-03 -1.736929e-03
4.849237e-07 1.075137e-03 -1.725438e-03
-3.272785e-05 1.074357e-03 -1.748372e-03
-4.929160e-05 1.068563e-03 -1.776404e-03
-2.446542e-05 1.061911e-03 -1.768566e-03
-1.938090e-05 1.059567e-03 -1.755392e-03
-1.733939e-05 1.056996e-03 -1.755392e-03
-2.079337e-05 1.053815e-03 -1.760729e-03
1.411587e-05 1.050784e-03 -1.726111e-03
-1.401336e-05 1.052660e-03 -1.748517e-03
-2.472588e-05 1.050728e-03 -1.762268e-03
-4.686893e-05 1.046667e-03 -1.789866e-03
-2.458585e-05 1.040395e-03 -1.771259e-03
2.337970e-05 1.037914e-03 -1.719524e-03
-2.053564e-05 1.040720e-03 -1.767749e-03
-3.822249e-06 1.037613e-03 -1.771836e-03
3.697723e-05 1.037154e-03 -1.745199e-03
6.071676e-05 1.043032e-03 -1.720870e-03
2.595662e-05 1.051732e-03 -1.749382e-03
-8.450024e-06 1.055079e-03 -1.789049e-03
3.645230e-05 1.054412e-03 -1.768999e-03
6.803792e-05 1.060858e-03 -1.739910e-03
3.633591e-05 1.071404e-03 -1.753469e-03
3.090434e-05 1.076692e-03 -1.759720e-03
2.430674e-05 1.080837e-03 -1.777365e-03
7.453495e-05 1.085517e-03 -1.742314e-03
7.215423e-05 1.097226e-03 -1.741689e-03
2.051002e-05 1.107713e-03 -1.785683e-03
-1.200151e-05 1.111087e-03 -1.815830e-03
6.685305e-05 1.111326e-03 -1.749623e-03
1.038383e-04 1.122133e-03 -1.694522e-03
1.439692e-05 1.135943e-03 -1.756594e-03
4.470729e-06 1.137359e-03 -1.788184e-03
4.728794e-05 1.138920e-03 -1.743131e-03
4.861815e-05 1.146389e-03 -1.736016e-03
3.498823e-06 1.153476e-03 -1.773423e-03
-1.168907e-05 1.153999e-03 -1.786260e-03
9.986186e-06 1.152759e-03 -1.759720e-03
2.056805e-05 1.154966e-03 -1.736785e-03
3.047385e-05 1.157946e-03 -1.729573e-03
-2.668363e-05 1.161109e-03 -1.780346e-03
-3.645127e-05 1.157221e-03 -1.789434e-03
2.500166e-05 1.153177e-03 -1.735679e-03
7.689831e-06 1.156882e-03 -1.757556e-03
-2.354134e-05 1.157726e-03 -1.776163e-03
-1.510050e-05 1.154046e-03 -1.783135e-03
3.589889e-05 1.152858e-03 -1.737169e-03
3.707945e-05 1.158361e-03 -1.723178e-03
-2.044132e-05 1.162655e-03 -1.775154e-03
-1.588180e-05 1.159394e-03 -1.778279e-03
8.959200e-07 1.157762e-03 -1.750488e-03
-1.068911e-06 1.158381e-03 -1.738948e-03
-5.073236e-05 1.157510e-03 -1.799242e-03
-2.392515e-05 1.150417e-03 -1.781164e-03
4.626123e-05 1.147448e-03 -1.725149e-03
4.063128e-05 1.154088e-03 -1.731833e-03
-3.262268e-05 1.159547e-03 -1.774529e-03
-3.267889e-05 1.154363e-03 -1.789578e-03
2.140999e-05 1.150182e-03 -1.761787e-03
5.023803e-05 1.154289e-03 -1.719908e-03
-3.800836e-07 1.160961e-03 -1.750103e-03
-3.729268e-05 1.159938e-03 -1.789530e-03
5.128389e-06 1.154876e-03 -1.756931e-03
3.557617e-05 1.156210e-03 -1.726640e-03
-1.579343e-05 1.161036e-03 -1.762845e-03
-4.959972e-05 1.158157e-03 -1.794723e-03
-6.495245e-06 1.151209e-03 -1.760729e-03
1.994698e-05 1.150731e-03 -1.744574e-03
-3.189852e-06 1.153915e-03 -1.757460e-03
-1.903778e-05 1.152982e-03 -1.775394e-03
2.055150e-05 1.149935e-03 -1.760922e-03
5.509074e-05 1.153475e-03 -1.728130e-03
3.986345e-06 1.161548e-03 -1.760056e-03
-3.281328e-05 1.161901e-03 -1.791838e-03
-1.736812e-05 1.157226e-03 -1.791742e-03
4.879522e-05 1.155876e-03 -1.732217e-03
3.864328e-05 1.163192e-03 -1.731400e-03
-1.021171e-05 1.168053e-03 -1.772317e-03
-1.994413e-05 1.166101e-03 -1.799098e-03
4.595540e-05 1.164390e-03 -1.746305e-03
4.663496e-05 1.171788e-03 -1.713081e-03
-1.360720e-05 1.177458e-03 -1.762124e-03
-5.400286e-05 1.174677e-03 -1.812416e-03
2.224743e-05 1.168000e-03 -1.757604e-03
5.043893e-05 1.172119e-03 -1.727553e-03
-2.337536e-05 1.179052e-03 -1.769817e-03
-6.959891e-05 1.175031e-03 -1.820734e-03
1.245135e-05 1.166016e-03 -1.758950e-03
4.368590e-05 1.168534e-03 -1.722360e-03
2.836065e-06 1.174381e-03 -1.758854e-03
-3.423954e-05 1.174098e-03 -1.793376e-03
1.856796e-05 1.169371e-03 -1.751257e-03
4.682477e-05 1.172415e-03 -1.729621e-03
-5.357953e-07 1.179196e-03 -1.768182e-03
-1.738648e-05 1.178881e-03 -1.783376e-03
-5.490844e-06 1.176265e-03 -1.768374e-03
1.377585e-07 1.176021e-03 -1.761883e-03
-7.638697e-06 1.176779e-03 -1.767989e-03
-2.538236e-05 1.175530e-03 -1.778038e-03
1.956364e-06 1.171463e-03 -1.768903e-03
2.330264e-05 1.172185e-03 -1.754863e-03
5.034646e-05 1.176299e-03 -1.730294e-03
-3.326933e-05 1.182791e-03 -1.791309e-03
-3.892437e-06 1.177888e-03 -1.777029e-03
3.656867e-05 1.177863e-03 -1.744814e-03
4.728839e-05 1.183732e-03 -1.734669e-03
-2.431501e-05 1.190089e-03 -1.792895e-03
-3.049277e-05 1.186555e-03 -1.797944e-03
9.578561e-06 1.182880e-03 -1.763278e-03
2.952958e-05 1.185190e-03 -1.741689e-03
-3.216593e-05 1.189237e-03 -1.795299e-03
-1.467737e-05 1.184586e-03 -1.797800e-03
1.028162e-05 1.183138e-03 -1.771932e-03
3.309734e-05 1.185710e-03 -1.741064e-03
-1.187207e-05 1.190435e-03 -1.769095e-03
-4.350125e-05 1.188023e-03 -1.790395e-03
-1.315630e-05 1.181574e-03 -1.777942e-03
4.299876e-05 1.180568e-03 -1.735198e-03
3.191847e-05 1.186793e-03 -1.742747e-03
-3.855234e-05 1.190382e-03 -1.803281e-03
-3.269097e-05 1.185002e-03 -1.795636e-03
4.132588e-05 1.181424e-03 -1.737794e-03
1.861564e-05 1.187594e-03 -1.761210e-03
-1.525190e-05 1.189921e-03 -1.793328e-03
-6.982378e-06 1.187661e-03 -1.783087e-03
3.487498e-05 1.187394e-03 -1.745536e-03
3.522146e-05 1.192914e-03 -1.739045e-03
-2.233473e-05 1.197244e-03 -1.789914e-03
-1.872370e-05 1.193729e-03 -1.799627e-03
2.002104e-05 1.192007e-03 -1.756161e-03
2.754335e-05 1.195543e-03 -1.740824e-03
-3.168591e-05 1.198902e-03 -1.787655e-03
-4.798497e-05 1.193805e-03 -1.812945e-03
1.287933e-05 1.187754e-03 -1.767749e-03
3.890667e-05 1.190574e-03 -1.741593e-03
1.032254e-06 1.195946e-03 -1.772124e-03
-1.275589e-05 1.195406e-03 -1.792559e-03
2.509698e-05 1.193855e-03 -1.774673e-03
4.044037e-05 1.198706e-03 -1.752748e-03
-1.282187e-05 1.204848e-03 -1.775971e-03
-2.552985e-05 1.202363e-03 -1.794434e-03
-7.462113e-06 1.198719e-03 -1.782702e-03
3.145472e-05 1.198651e-03 -1.743853e-03
2.218691e-05 1.203256e-03 -1.749334e-03
-2.038108e-06 1.205411e-03 -1.774625e-03
-2.319006e-05 1.204542e-03 -1.794049e-03
7.415954e-06 1.202256e-03 -1.752219e-03
-6.550086e-06 1.203528e-03 -1.745584e-03
-4.814355e-05 1.201273e-03 -1.776211e-03
-5.726206e-05 1.193178e-03 -1.795059e-03
-3.459791e-06 1.185437e-03 -1.745488e-03
-8.065105e-06 1.184898e-03 -1.730775e-03
-4.956127e-05 1.182159e-03 -1.763181e-03
-7.235892e-05 1.173368e-03 -1.786020e-03
-4.510302e-05 1.162700e-03 -1.763181e-03
-4.177391e-05 1.156342e-03 -1.740054e-03
-8.758669e-05 1.148929e-03 -1.775298e-03
-9.181930e-05 1.134698e-03 -1.789145e-03
-3.911766e-05 1.120942e-03 -1.761066e-03
1.281960e-05 1.115403e-03 -1.731159e-03
8.419640e-06 1.116389e-03 -1.758277e-03
-2.752433e-05 1.116560e-03 -1.815542e-03
4.343135e-05 1.113592e-03 -1.761883e-03
9.901735e-05 1.120944e-03 -1.704763e-03
3.386868e-05 1.134645e-03 -1.771259e-03
4.075945e-06 1.139388e-03 -1.811647e-03
7.664467e-05 1.141056e-03 -1.754959e-03
1.031251e-04 1.153234e-03 -1.734429e-03
6.612023e-05 1.168843e-03 -1.764768e-03
1.470724e-05 1.178521e-03 -1.803377e-03
4.584606e-05 1.181376e-03 -1.776356e-03
7.598194e-05 1.189320e-03 -1.754815e-03
6.309753e-05 1.201579e-03 -1.758710e-03
2.675663e-05 1.210802e-03 -1.783423e-03
5.633329e-06 1.214713e-03 -1.796550e-03
6.630893e-05 1.216879e-03 -1.745776e-03
6.286825e-05 1.227340e-03 -1.743516e-03
1.031735e-05 1.236185e-03 -1.782221e-03
-7.488585e-06 1.237451e-03 -1.792655e-03
2.675987e-05 1.237195e-03 -1.768759e-03
2.624103e-05 1.242282e-03 -1.761066e-03
5.217722e-06 1.246236e-03 -1.776981e-03
-1.167107e-05 1.246537e-03 -1.789818e-03
1.953034e-05 1.245291e-03 -1.771884e-03
2.242645e-05 1.249271e-03 -1.761402e-03
-2.865869e-05 1.252803e-03 -1.790299e-03
-1.080346e-04 1.248326e-03 -1.815349e-03
-8.134376e-05 1.232694e-03 -1.769865e-03
-1.514158e-05 1.220679e-03 -1.729573e-03
-6.342834e-05 1.217326e-03 -1.755969e-03
-1.677994e-04 1.206254e-03 -1.787943e-03
-2.274031e-04 1.180082e-03 -1.778567e-03
-2.251390e-04 1.145363e-03 -1.763374e-03
-5.505794e-05 1.110534e-03 -1.772076e-03
2.588790e-04 1.101527e-03 -1.773903e-03
4.725885e-04 1.141541e-03 -1.725101e-03
4.256761e-04 1.214274e-03 -1.731592e-03
3.249425e-04 1.280197e-03 -1.779914e-03
3.028119e-04 1.331079e-03 -1.796165e-03
2.449401e-04 1.378662e-03 -1.801887e-03
1.667864e-04 1.418399e-03 -1.768759e-03
3.476354e-05 1.445268e-03 -1.771355e-03
-8.635923e-05 1.450612e-03 -1.811262e-03
-1.360001e-04 1.437747e-03 -1.819821e-03
-1.101237e-04 1.418218e-03 -1.777846e-03
-9.748662e-05 1.401975e-03 -1.762845e-03
-1.332097e-04 1.386395e-03 -1.784578e-03
-1.574994e-04 1.365103e-03 -1.815253e-03
-9.683596e-05 1.341703e-03 -1.786164e-03
-6.105528e-05 1.327703e-03 -1.762701e-03
-8.060519e-05 1.317972e-03 -1.783231e-03
-1.119713e-04 1.304863e-03 -1.816311e-03
-6.112489e-05 1.288347e-03 -1.786885e-03
-2.978232e-05 1.279794e-03 -1.767028e-03
-4.607593e-05 1.275221e-03 -1.787030e-03
-8.046646e-05 1.267684e-03 -1.814580e-03
-4.458323e-05 1.255794e-03 -1.791549e-03
7.041760e-06 1.249797e-03 -1.757363e-03
-3.127652e-05 1.250709e-03 -1.786549e-03
-4.036409e-05 1.245564e-03 -1.808714e-03
-1.448935e-05 1.239595e-03 -1.793569e-03
9.144311e-06 1.238175e-03 -1.764864e-03
-6.421710e-06 1.239750e-03 -1.768518e-03
-4.783230e-05 1.237983e-03 -1.811070e-03
-2.961853e-05 1.230781e-03 -1.804483e-03
1.772181e-05 1.227145e-03 -1.765537e-03
6.937471e-06 1.230093e-03 -1.772798e-03
-2.836151e-05 1.230726e-03 -1.802993e-03
-2.803704e-05 1.226218e-03 -1.807945e-03
1.858738e-05 1.222722e-03 -1.770874e-03
2.952671e-05 1.225966e-03 -1.771403e-03
-2.995285e-05 1.230249e-03 -1.811166e-03
-5.444212e-05 1.225745e-03 -1.825831e-03
8.550785e-06 1.218478e-03 -1.786164e-03
3.066917e-05 1.220593e-03 -1.767749e-03
1.991847e-06 1.225037e-03 -1.792511e-03
-1.755360e-05 1.224870e-03 -1.814291e-03
1.719126e-05 1.222772e-03 -1.786308e-03
1.309506e-05 1.226147e-03 -1.774961e-03
-1.392269e-05 1.228211e-03 -1.796838e-03
-5.282698e-05 1.225717e-03 -1.831360e-03
-1.500307e-05 1.218424e-03 -1.808185e-03
2.284068e-05 1.217314e-03 -1.770538e-03
5.569368e-06 1.220835e-03 -1.769047e-03
-4.042738e-05 1.220481e-03 -1.807801e-03
-2.405334e-05 1.214108e-03 -1.813234e-03
1.526090e-05 1.211576e-03 -1.767749e-03
4.868338e-06 1.213891e-03 -1.769961e-03
-4.882947e-05 1.213593e-03 -1.816263e-03
-4.432096e-05 1.206056e-03 -1.824100e-03
-1.044498e-06 1.200475e-03 -1.782221e-03
1.999615e-06 1.200748e-03 -1.772076e-03
-4.216254e-05 1.200196e-03 -1.813522e-03
-3.791411e-05 1.193495e-03 -1.817369e-03
1.183739e-05 1.188459e-03 -1.780202e-03
1.607619e-05 1.190711e-03 -1.766018e-03
-4.378291e-05 1.192344e-03 -1.814532e-03
-6.843524e-05 1.185359e-03 -1.833139e-03
-1.710312e-05 1.175761e-03 -1.810349e-03
2.324342e-05 1.174409e-03 -1.780971e-03
-4.096282e-06 1.177851e-03 -1.803954e-03
-3.242297e-05 1.176801e-03 -1.824148e-03
-1.103956e-05 1.172342e-03 -1.799386e-03
4.107858e-05 1.171382e-03 -1.766210e-03
1.156571e-05 1.177287e-03 -1.798136e-03
-3.239469e-05 1.178600e-03 -1.831024e-03
-8.055980e-06 1.174167e-03 -1.809868e-03
3.436453e-05 1.173913e-03 -1.771692e-03
7.226180e-06 1.179078e-03 -1.789626e-03
-2.589198e-05 1.179501e-03 -1.825494e-03
1.694637e-05 1.175753e-03 -1.806935e-03
7.300353e-05 1.179220e-03 -1.769672e-03
7.099869e-05 1.190600e-03 -1.765682e-03
1.548199e-05 1.200488e-03 -1.812657e-03
3.245828e-05 1.202793e-03 -1.814965e-03
1.066402e-04 1.208858e-03 -1.767749e-03
9.865999e-05 1.225637e-03 -1.762845e-03
2.960750e-05 1.240069e-03 -1.813474e-03
1.322427e-05 1.244625e-03 -1.826793e-03
5.311928e-05 1.247859e-03 -1.797800e-03
6.434959e-05 1.257207e-03 -1.780875e-03
3.921251e-05 1.267006e-03 -1.805252e-03
2.320048e-05 1.272778e-03 -1.822273e-03
6.466817e-05 1.277227e-03 -1.784337e-03
8.070804e-05 1.287920e-03 -1.764383e-03
3.327087e-05 1.299969e-03 -1.792126e-03
-6.258405e-07 1.304393e-03 -1.823187e-03
2.784900e-05 1.304862e-03 -1.803617e-03
5.505267e-05 1.310257e-03 -1.770057e-03
6.241477e-06 1.318585e-03 -1.793617e-03
-8.149690e-06 1.318840e-03 -1.822369e-03
1.551892e-05 1.317914e-03 -1.800011e-03
4.738198e-05 1.321102e-03 -1.769480e-03
1.080469e-05 1.328349e-03 -1.792463e-03
-2.218955e-05 1.329418e-03 -1.826600e-03
-1.430426e-05 1.326196e-03 -1.809435e-03
4.334741e-05 1.324752e-03 -1.759960e-03
1.897106e-05 1.331194e-03 -1.767701e-03
-3.549650e-05 1.332917e-03 -1.812753e-03
-1.705948e-05 1.326980e-03 -1.812609e-03
2.383274e-05 1.325034e-03 -1.780875e-03
2.712124e-05 1.329198e-03 -1.761883e-03
-1.667664e-05 1.332272e-03 -1.805348e-03
-9.356878e-06 1.329087e-03 -1.812128e-03
3.113254e-05 1.328167e-03 -1.778135e-03
2.990379e-05 1.333435e-03 -1.768999e-03
-2.349021e-05 1.337450e-03 -1.800492e-03
-4.570236e-05 1.333025e-03 -1.835255e-03
7.167390e-06 1.326891e-03 -1.792895e-03
3.953796e-05 1.328802e-03 -1.762941e-03
-9.197234e-06 1.334360e-03 -1.790203e-03
-2.974507e-05 1.331925e-03 -1.820686e-03
1.085938e-05 1.327622e-03 -1.803473e-03
3.325597e-05 1.330420e-03 -1.768951e-03
-1.096358e-06 1.335394e-03 -1.794097e-03
-2.365432e-05 1.334537e-03 -1.813811e-03
1.624602e-05 1.330793e-03 -1.791213e-03
3.528918e-05 1.333868e-03 -1.774144e-03
-1.656489e-05 1.339516e-03 -1.797030e-03
-4.219529e-05 1.336442e-03 -1.826793e-03
1.434919e-05 1.330046e-03 -1.790443e-03
4.356389e-05 1.332613e-03 -1.756017e-03
1.255792e-05 1.339049e-03 -1.779433e-03
-2.002218e-05 1.340232e-03 -1.804291e-03
1.596759e-06 1.336548e-03 -1.796165e-03
4.007143e-05 1.337115e-03 -1.763662e-03
3.294490e-05 1.343376e-03 -1.762460e-03
-2.164893e-05 1.347485e-03 -1.813522e-03
-3.699807e-06 1.343864e-03 -1.818138e-03
4.800632e-05 1.344182e-03 -1.775346e-03
3.995082e-05 1.352189e-03 -1.767316e-03
-7.822117e-06 1.357843e-03 -1.809291e-03
-8.796639e-06 1.356317e-03 -1.817080e-03
1.980469e-05 1.355554e-03 -1.789722e-03
1.784302e-05 1.359488e-03 -1.771932e-03
-6.837147e-07 1.361955e-03 -1.792222e-03
-2.687072e-05 1.361025e-03 -1.824869e-03
1.044918e-05 1.357410e-03 -1.804531e-03
5.298209e-05 1.360265e-03 -1.773807e-03
1.573983e-05 1.368659e-03 -1.791790e-03
-1.660478e-05 1.370472e-03 -1.817802e-03
4.808408e-06 1.368051e-03 -1.801358e-03
4.257661e-05 1.369709e-03 -1.766932e-03
2.860655e-05 1.376322e-03 -1.773038e-03
-2.121448e-05 1.379697e-03 -1.819532e-03
1.951360e-05 1.376472e-03 -1.794578e-03
4.694552e-05 1.380100e-03 -1.758277e-03
2.244798e-05 1.387241e-03 -1.767653e-03
-2.063165e-05 1.389645e-03 -1.807176e-03
-1.214567e-05 1.386015e-03 -1.815253e-03
4.221232e-05 1.385123e-03 -1.759287e-03
3.103466e-05 1.391636e-03 -1.755392e-03
-2.246069e-05 1.395224e-03 -1.801165e-03
-3.047091e-05 1.391069e-03 -1.810637e-03
2.954103e-05 1.386880e-03 -1.764239e-03
4.126712e-05 1.391597e-03 -1.757748e-03
-1.406661e-07 1.397185e-03 -1.801262e-03
-2.377099e-05 1.396678e-03 -1.825591e-03
3.606354e-05 1.393915e-03 -1.786116e-03
4.313828e-05 1.400448e-03 -1.764864e-03
-5.674631e-06 1.406806e-03 -1.793232e-03
-2.985534e-05 1.405166e-03 -1.815590e-03
1.014121e-05 1.400846e-03 -1.796357e-03
4.918930e-05 1.403485e-03 -1.764528e-03
2.449853e-05 1.411010e-03 -1.783856e-03
-1.086527e-05 1.414015e-03 -1.811887e-03
2.550596e-06 1.412427e-03 -1.799771e-03
4.082890e-05 1.413816e-03 -1.762941e-03
2.034742e-05 1.420114e-03 -1.777654e-03
-3.171335e-05 1.422410e-03 -1.813234e-03
-7.072433e-06 1.417386e-03 -1.796646e-03
2.496613e-05 1.416938e-03 -1.760777e-03
2.697698e-05 1.420744e-03 -1.768182e-03
-6.694737e-06 1.423981e-03 -1.807176e-03
-7.277003e-06 1.422688e-03 -1.803954e-03
3.101224e-05 1.422287e-03 -1.765489e-03
1.516138e-05 1.427319e-03 -1.767557e-03
-2.952380e-05 1.428876e-03 -1.803521e-03
-2.446934e-05 1.423773e-03 -1.812945e-03
3.872200e-05 1.420731e-03 -1.759095e-03
4.871733e-05 1.426795e-03 -1.744814e-03
-1.384681e-05 1.433152e-03 -1.799867e-03
-3.620425e-05 1.430459e-03 -1.823908e-03
1.245349e-05 1.425748e-03 -1.783616e-03
5.009574e-05 1.428493e-03 -1.757748e-03
1.814280e-05 1.435781e-03 -1.782943e-03
-2.899067e-05 1.437671e-03 -1.815590e-03
-1.739359e-06 1.433594e-03 -1.791357e-03
-1.394345e-06 1.434258e-03 -1.766355e-03
-4.264035e-05 1.433818e-03 -1.787510e-03
-6.118497e-05 1.426255e-03 -1.816311e-03
-4.461686e-05 1.416851e-03 -1.796934e-03
-6.814950e-06 1.410686e-03 -1.760922e-03
-4.077250e-05 1.409352e-03 -1.773519e-03
-1.005914e-04 1.401761e-03 -1.815926e-03
-7.773640e-05 1.385878e-03 -1.805012e-03
-3.011360e-05 1.374509e-03 -1.761546e-03
-4.751160e-05 1.369598e-03 -1.769672e-03
-7.454114e-05 1.360998e-03 -1.811503e-03
-3.343430e-05 1.349029e-03 -1.803521e-03
2.822765e-05 1.344487e-03 -1.768566e-03
2.304175e-05 1.349240e-03 -1.771788e-03
5.484413e-06 1.352230e-03 -1.804916e-03
3.135866e-05 1.352799e-03 -1.796502e-03
7.499068e-05 1.358162e-03 -1.761979e-03
7.710228e-05 1.370187e-03 -1.760344e-03
5.149732e-05 1.381656e-03 -1.798184e-03
4.444369e-05 1.389382e-03 -1.817032e-03
9.438546e-05 1.397379e-03 -1.777269e-03
1.029725e-04 1.413024e-03 -1.752748e-03
5.511216e-05 1.428574e-03 -1.782654e-03
2.139031e-05 1.436380e-03 -1.808714e-03
6.725587e-05 1.440182e-03 -1.780394e-03
8.855008e-05 1.451535e-03 -1.752892e-03
4.512350e-05 1.465007e-03 -1.777894e-03
-4.997982e-06 1.471183e-03 -1.816455e-03
1.886922e-05 1.470875e-03 -1.797127e-03
4.866806e-05 1.474973e-03 -1.761499e-03
3.557705e-05 1.482583e-03 -1.777894e-03
-2.405503e-06 1.487390e-03 -1.808762e-03
6.645285e-06 1.487042e-03 -1.797127e-03
4.066296e-05 1.488989e-03 -1.758998e-03
6.099190e-06 1.495377e-03 -1.765874e-03
-3.674138e-05 1.495281e-03 -1.803617e-03
-4.225917e-05 1.489163e-03 -1.812272e-03
-1.210102e-05 1.483622e-03 -1.769913e-03
-5.377592e-05 1.482073e-03 -1.758566e-03
-6.837057e-05 1.472387e-03 -1.793376e-03
-2.028234e-05 1.460791e-03 -1.799819e-03
-4.049721e-05 1.458071e-03 -1.766018e-03
-1.493036e-04 1.451869e-03 -1.755440e-03
-2.547335e-04 1.427094e-03 -1.801069e-03
-1.934700e-04 1.386073e-03 -1.832274e-03
1.298328e-04 1.356642e-03 -1.781452e-03
3.360183e-04 1.378169e-03 -1.765201e-03
3.536944e-04 1.431460e-03 -1.781116e-03
2.692787e-04 1.486882e-03 -1.804339e-03
3.154898e-04 1.530054e-03 -1.775586e-03
2.999698e-04 1.580866e-03 -1.765105e-03
1.964894e-04 1.628573e-03 -1.785202e-03
5.997097e-05 1.659168e-03 -1.812464e-03
-1.300668e-06 1.669041e-03 -1.788568e-03
-2.005562e-05 1.669622e-03 -1.760441e-03
-8.782971e-05 1.666284e-03 -1.774625e-03
-1.445408e-04 1.651306e-03 -1.808089e-03
-1.338744e-04 1.628282e-03 -1.800348e-03
-9.634438e-05 1.607965e-03 -1.765105e-03
-1.068652e-04 1.592763e-03 -1.774625e-03
-1.279288e-04 1.574977e-03 -1.803714e-03
-1.168331e-04 1.554313e-03 -1.801117e-03
-4.593596e-05 1.536498e-03 -1.750151e-03
-5.031913e-05 1.528860e-03 -1.753469e-03
-1.054705e-04 1.519583e-03 -1.805589e-03
-7.166821e-05 1.502561e-03 -1.802993e-03
-2.251640e-05 1.491826e-03 -1.767220e-03
-3.062065e-05 1.488584e-03 -1.756690e-03
-5.494636e-05 1.482810e-03 -1.791501e-03
-5.964352e-05 1.473372e-03 -1.819003e-03
-2.656344e-06 1.464898e-03 -1.780971e-03
6.774631e-06 1.465275e-03 -1.761306e-03
-4.824146e-05 1.465864e-03 -1.800636e-03
-6.688893e-05 1.457875e-03 -1.831024e-03
-2.392113e-05 1.448419e-03 -1.789866e-03
4.426539e-06 1.445602e-03 -1.754575e-03
-1.624871e-05 1.445748e-03 -1.780971e-03
-1.983740e-05 1.442220e-03 -1.804291e-03
-5.451714e-06 1.439086e-03 -1.792174e-03
1.905000e-05 1.439153e-03 -1.757556e-03
-6.992894e-06 1.441925e-03 -1.771547e-03
-3.127910e-05 1.439718e-03 -1.806599e-03
-7.358291e-06 1.434693e-03 -1.792607e-03
2.030811e-05 1.434289e-03 -1.758373e-03
1.585348e-05 1.437446e-03 -1.762364e-03
-2.216958e-05 1.438783e-03 -1.797079e-03
-2.331187e-05 1.434780e-03 -1.802752e-03
-5.202295e-07 1.431990e-03 -1.770201e-03
-5.017486e-06 1.432352e-03 -1.770105e-03
-4.784651e-05 1.430899e-03 -1.806551e-03
-4.047607e-05 1.423096e-03 -1.809483e-03
8.283904e-06 1.417561e-03 -1.763326e-03
1.267672e-05 1.419082e-03 -1.745247e-03
-2.875989e-05 1.419794e-03 -1.792895e-03
-4.195270e-05 1.414572e-03 -1.816407e-03
-8.083390e-06 1.408829e-03 -1.781885e-03
2.361172e-06 1.408386e-03 -1.765730e-03
-3.109741e-05 1.408428e-03 -1.785587e-03
-4.429524e-05 1.402634e-03 -1.805012e-03
-4.604131e-06 1.395878e-03 -1.783135e-03
8.474561e-06 1.395925e-03 -1.758181e-03
-2.469527e-05 1.396881e-03 -1.773759e-03
-6.223396e-05 1.391820e-03 -1.814291e-03
-1.838883e-05 1.382353e-03 -1.791309e-03
1.923263e-06 1.380360e-03 -1.759335e-03
-1.317124e-05 1.380501e-03 -1.774913e-03
-4.496739e-05 1.377486e-03 -1.813522e-03
-2.042002e-05 1.370585e-03 -1.793136e-03
1.510073e-05 1.368144e-03 -1.758181e-03
-2.342933e-05 1.370468e-03 -1.782654e-03
-5.175994e-05 1.366297e-03 -1.806743e-03
-2.183887e-05 1.357964e-03 -1.798569e-03
1.162676e-05 1.355270e-03 -1.764047e-03
5.871964e-06 1.357323e-03 -1.756835e-03
-2.560573e-05 1.357115e-03 -1.795925e-03
-4.416257e-05 1.352497e-03 -1.816600e-03
2.365886e-05 1.346652e-03 -1.770826e-03
3.661840e-05 1.350906e-03 -1.755825e-03
-2.132525e-05 1.355815e-03 -1.803137e-03
-3.413811e-05 1.352137e-03 -1.814291e-03
2.458488e-05 1.347553e-03 -1.777750e-03
4.676059e-05 1.352158e-03 -1.750969e-03
1.455210e-05 1.358740e-03 -1.774673e-03
-2.201353e-06 1.359818e-03 -1.807656e-03
4.540469e-05 1.359861e-03 -1.772124e-03
8.507062e-05 1.367507e-03 -1.739670e-03
4.436466e-05 1.380037e-03 -1.768951e-03
-1.374848e-06 1.385822e-03 -1.816071e-03
2.437038e-05 1.386137e-03 -1.800348e-03
6.283005e-05 1.391334e-03 -1.759383e-03
4.123852e-05 1.401241e-03 -1.772221e-03
1.055842e-05 1.406824e-03 -1.800108e-03
1.169223e-05 1.408287e-03 -1.801165e-03
6.836080e-05 1.411286e-03 -1.753950e-03
4.627721e-05 1.422023e-03 -1.772461e-03
-1.559043e-05 1.428645e-03 -1.809628e-03
4.710131e-06 1.426183e-03 -1.789818e-03
8.706053e-05 1.427445e-03 -1.740343e-03
6.625723e-05 1.440748e-03 -1.755392e-03
5.198922e-06 1.450167e-03 -1.795636e-03
2.708641e-06 1.450494e-03 -1.796502e-03
3.545497e-05 1.451501e-03 -1.757604e-03
9.418614e-06 1.457294e-03 -1.761643e-03
-2.771111e-05 1.458171e-03 -1.788280e-03
-2.050490e-05 1.453033e-03 -1.794674e-03
2.144668e-05 1.450074e-03 -1.765441e-03
3.763761e-05 1.453885e-03 -1.747699e-03
-2.686919e-05 1.459012e-03 -1.795780e-03
-5.436407e-05 1.454389e-03 -1.830062e-03
1.765734e-06 1.447109e-03 -1.784481e-03
3.412458e-05 1.448407e-03 -1.749574e-03
-2.119345e-06 1.453254e-03 -1.775442e-03
-3.495244e-05 1.451901e-03 -1.809724e-03
-3.480438e-06 1.446730e-03 -1.784914e-03
2.026551e-05 1.447072e-03 -1.756690e-03
-1.213566e-06 1.450186e-03 -1.768951e-03
-3.721521e-05 1.448924e-03 -1.804339e-03
-7.612156e-06 1.443025e-03 -1.786308e-03
1.697960e-05 1.442569e-03 -1.747699e-03
-1.189535e-05 1.445000e-03 -1.768566e-03
-4.939641e-05 1.442257e-03 -1.807945e-03
-2.158322e-05 1.434446e-03 -1.790972e-03
2.012170e-05 1.431734e-03 -1.748901e-03
2.271567e-05 1.434814e-03 -1.748372e-03
-4.789153e-05 1.437099e-03 -1.800733e-03
-3.300596e-05 1.429233e-03 -1.795540e-03
1.437115e-05 1.424648e-03 -1.753517e-03
2.874716e-05 1.427052e-03 -1.738083e-03
-2.537957e-05 1.430213e-03 -1.785779e-03
-2.725979e-05 1.425410e-03 -1.799867e-03
1.276959e-05 1.421681e-03 -1.762701e-03
1.344628e-05 1.424178e-03 -1.749911e-03
-2.540480e-05 1.425622e-03 -1.784722e-03
-2.426306e-05 1.420874e-03 -1.806791e-03
2.478185e-05 1.417650e-03 -1.768759e-03
4.433725e-05 1.422184e-03 -1.742795e-03
-1.223221e-05 1.428508e-03 -1.789578e-03
-4.699233e-05 1.426150e-03 -1.813763e-03
3.403276e-06 1.419364e-03 -1.775105e-03
3.292479e-05 1.420614e-03 -1.752892e-03
1.097751e-07 1.425686e-03 -1.780539e-03
-2.372842e-05 1.425099e-03 -1.808329e-03
2.057557e-05 1.421616e-03 -1.781260e-03
4.980088e-05 1.425615e-03 -1.742218e-03
1.141712e-05 1.433131e-03 -1.755008e-03
-3.706671e-05 1.433630e-03 -1.801791e-03
-2.125833e-05 1.427678e-03 -1.796598e-03
2.750727e-05 1.425407e-03 -1.747843e-03
5.386185e-06 1.429738e-03 -1.762027e-03
-4.225321e-05 1.429777e-03 -1.801117e-03
-5.218071e-06 1.422889e-03 -1.781596e-03
4.591788e-05 1.422382e-03 -1.748036e-03
5.211409e-05 1.429697e-03 -1.735102e-03
-1.810482e-05 1.436449e-03 -1.782221e-03
-3.171003e-05 1.432745e-03 -1.799675e-03
7.979399e-06 1.428491e-03 -1.765345e-03
2.053370e-05 1.430457e-03 -1.745391e-03
-1.054513e-05 1.432880e-03 -1.780010e-03
-2.316482e-05 1.430354e-03 -1.796886e-03
7.679545e-06 1.427108e-03 -1.765249e-03
3.008972e-05 1.428979e-03 -1.737554e-03
-5.666267e-06 1.432905e-03 -1.760970e-03
-4.379135e-05 1.430594e-03 -1.801887e-03
-3.751052e-06 1.424066e-03 -1.777894e-03
2.731684e-05 1.424491e-03 -1.750296e-03
-1.266153e-05 1.428698e-03 -1.779289e-03
-2.460631e-05 1.426122e-03 -1.810108e-03
1.149125e-05 1.422720e-03 -1.785443e-03
4.157216e-05 1.425622e-03 -1.736160e-03
1.070085e-05 1.431731e-03 -1.759239e-03
-3.080891e-05 1.432325e-03 -1.796069e-03
-1.195955e-05 1.427275e-03 -1.785587e-03
3.525641e-05 1.426265e-03 -1.746690e-03
2.508887e-05 1.431912e-03 -1.740824e-03
-3.292012e-05 1.434387e-03 -1.786549e-03
-1.957510e-05 1.428591e-03 -1.793136e-03
2.475833e-05 1.426425e-03 -1.753132e-03
1.837409e-05 1.430742e-03 -1.752363e-03
-1.884543e-05 1.432861e-03 -1.782558e-03
-2.738604e-05 1.429142e-03 -1.797800e-03
1.918856e-05 1.425647e-03 -1.749526e-03
4.737607e-05 1.428954e-03 -1.732554e-03
2.354386e-06 1.435222e-03 -1.766499e-03
-3.093759e-05 1.434329e-03 -1.794097e-03
4.477183e-06 1.429926e-03 -1.758373e-03
-4.030748e-06 1.431222e-03 -1.753854e-03
-2.389336e-05 1.430457e-03 -1.773327e-03
-4.055324e-05 1.425817e-03 -1.805445e-03
9.266531e-06 1.420087e-03 -1.773423e-03
3.307020e-05 1.422537e-03 -1.742074e-03
4.025196e-06 1.427397e-03 -1.759239e-03
-3.427242e-05 1.426796e-03 -1.801935e-03
-1.193909e-05 1.421724e-03 -1.784578e-03
2.814021e-05 1.421072e-03 -1.751401e-03
2.752600e-06 1.425688e-03 -1.764576e-03
-3.986846e-05 1.425276e-03 -1.795203e-03
-4.651619e-06 1.418909e-03 -1.785202e-03
3.801919e-05 1.419174e-03 -1.746930e-03
1.827631e-05 1.425310e-03 -1.747218e-03
-2.887764e-05 1.426980e-03 -1.783856e-03
-4.167421e-05 1.421841e-03 -1.789914e-03
-1.167212e-06 1.416193e-03 -1.748324e-03
-4.932855e-06 1.416305e-03 -1.743612e-03
-5.654061e-05 1.414495e-03 -1.772942e-03
-6.698200e-05 1.404598e-03 -1.790636e-03
-2.698039e-05 1.394743e-03 -1.752411e-03
-2.168367e-05 1.390985e-03 -1.736496e-03
-6.744868e-05 1.386602e-03 -1.766307e-03
-9.140338e-05 1.374831e-03 -1.795925e-03
-6.464564e-05 1.361104e-03 -1.761018e-03
-6.085902e-05 1.351692e-03 -1.743131e-03
-8.195720e-05 1.341681e-03 -1.775346e-03
-6.908869e-05 1.328092e-03 -1.802175e-03
-1.530074e-05 1.317866e-03 -1.778615e-03
3.263954e-05 1.316708e-03 -1.741737e-03
1.967208e-05 1.321550e-03 -1.756402e-03
1.019900e-07 1.323378e-03 -1.794194e-03
4.598482e-05 1.323508e-03 -1.765249e-03
8.602953e-05 1.331304e-03 -1.740343e-03
5.583737e-05 1.344669e-03 -1.763903e-03
2.370403e-05 1.352665e-03 -1.800444e-03
5.008640e-05 1.356574e-03 -1.789193e-03
1.025102e-04 1.365646e-03 -1.745151e-03
6.501522e-05 1.381889e-03 -1.759864e-03
3.712895e-05 1.391408e-03 -1.782029e-03
4.087495e-05 1.396653e-03 -1.774529e-03
6.880046e-05 1.403491e-03 -1.749767e-03
4.670936e-05 1.414667e-03 -1.753757e-03
5.057204e-06 1.421364e-03 -1.779096e-03
4.786340e-07 1.421471e-03 -1.786885e-03
4.535640e-05 1.422175e-03 -1.746016e-03
5.923913e-05 1.429544e-03 -1.728948e-03
6.187605e-06 1.437591e-03 -1.762797e-03
-2.342569e-05 1.437346e-03 -1.786549e-03
1.340980e-06 1.434072e-03 -1.764287e-03
2.979541e-05 1.435188e-03 -1.750344e-03
-4.125059e-06 1.439682e-03 -1.774144e-03
-3.462860e-05 1.438356e-03 -1.798665e-03
-1.171010e-05 1.433516e-03 -1.766595e-03
-3.633662e-05 1.432515e-03 -1.738179e-03
-9.189533e-05 1.426434e-03 -1.750055e-03
-9.560091e-05 1.410667e-03 -1.790155e-03
-6.740226e-05 1.395786e-03 -1.780154e-03
-9.931354e-05 1.386396e-03 -1.744334e-03
-2.024827e-04 1.370901e-03 -1.754334e-03
-2.937960e-04 1.338213e-03 -1.806599e-03
-1.107390e-04 1.292764e-03 -1.785972e-03
2.410548e-04 1.276576e-03 -1.746978e-03
4.243572e-04 1.314543e-03 -1.749046e-03
3.884380e-04 1.379936e-03 -1.780250e-03
3.378677e-04 1.440122e-03 -1.785924e-03
3.508600e-04 1.493819e-03 -1.755248e-03
2.892094e-04 1.549315e-03 -1.744334e-03
1.488354e-04 1.593672e-03 -1.778135e-03
-2.317702e-06 1.616304e-03 -1.805204e-03
-2.101518e-05 1.617211e-03 -1.759046e-03
-6.231578e-05 1.614662e-03 -1.746353e-03
-1.363022e-04 1.604362e-03 -1.779289e-03
-1.671837e-04 1.582451e-03 -1.806166e-03
-1.260469e-04 1.557325e-03 -1.763085e-03
-1.115998e-04 1.538406e-03 -1.742026e-03
-1.326136e-04 1.520475e-03 -1.770826e-03
-1.352125e-04 1.498888e-03 -1.795540e-03
-7.306015e-05 1.478133e-03 -1.768326e-03
-5.103285e-05 1.467550e-03 -1.747699e-03
-8.177575e-05 1.459491e-03 -1.771836e-03
-9.741866e-05 1.446045e-03 -1.799386e-03
-5.389786e-05 1.431133e-03 -1.780106e-03
-7.201081e-06 1.423766e-03 -1.741352e-03
-4.049361e-05 1.422489e-03 -1.756113e-03
-9.208462e-05 1.415132e-03 -1.801791e-03
-6.499470e-05 1.400976e-03 -1.799579e-03
6.303226e-06 1.392328e-03 -1.751065e-03
-1.194805e-06 1.393623e-03 -1.752171e-03
-4.750329e-05 1.392475e-03 -1.788712e-03
-3.461905e-05 1.384688e-03 -1.785924e-03
9.365875e-06 1.380033e-03 -1.742699e-03
-1.293545e-05 1.381563e-03 -1.747555e-03
-3.201940e-05 1.378674e-03 -1.772750e-03
-3.549326e-05 1.372724e-03 -1.772221e-03
-1.800477e-05 1.367208e-03 -1.760681e-03
1.438250e-05 1.365112e-03 -1.749719e-03
-1.943098e-05 1.366855e-03 -1.780779e-03
-5.774092e-05 1.363239e-03 -1.791645e-03
-1.194234e-05 1.354702e-03 -1.764431e-03
2.010113e-05 1.353624e-03 -1.734477e-03
-1.484070e-05 1.355967e-03 -1.761258e-03
-4.014168e-05 1.352467e-03 -1.794723e-03
-1.544321e-05 1.346568e-03 -1.762749e-03
-7.063226e-06 1.344775e-03 -1.746401e-03
-2.668470e-05 1.343530e-03 -1.771403e-03
-4.330827e-05 1.338708e-03 -1.799675e-03
-2.397678e-05 1.332311e-03 -1.783712e-03
1.641428e-05 1.329760e-03 -1.748709e-03
3.315650e-06 1.332425e-03 -1.759720e-03
-5.174356e-05 1.332047e-03 -1.800588e-03
-2.863603e-05 1.324181e-03 -1.785924e-03
9.222944e-06 1.320748e-03 -1.743276e-03
-2.824715e-05 1.322205e-03 -1.754623e-03
-6.431130e-05 1.316919e-03 -1.791020e-03
-4.244061e-05 1.306637e-03 -1.792126e-03
4.085306e-06 1.301028e-03 -1.747218e-03
-7.550748e-06 1.301894e-03 -1.748709e-03
-3.448146e-05 1.299879e-03 -1.779144e-03
-5.493314e-05 1.293790e-03 -1.800156e-03
-1.797123e-05 1.286254e-03 -1.760970e-03
-1.044840e-05 1.284164e-03 -1.750728e-03
-5.835139e-05 1.282014e-03 -1.781548e-03
-5.661067e-05 1.272293e-03 -1.795684e-03
-8.236900e-06 1.264067e-03 -1.762845e-03
-7.432730e-06 1.263503e-03 -1.742266e-03
-5.011430e-05 1.261757e-03 -1.784722e-03
-5.038469e-05 1.253518e-03 -1.801454e-03
-1.217550e-05 1.246224e-03 -1.780875e-03
1.869456e-05 1.245549e-03 -1.748565e-03
8.097540e-06 1.248309e-03 -1.759816e-03
-3.916040e-05 1.248399e-03 -1.794242e-03
-2.067190e-05 1.242364e-03 -1.782462e-03
1.032410e-05 1.240217e-03 -1.753421e-03
-6.920539e-06 1.242028e-03 -1.766355e-03
-3.409481e-05 1.240209e-03 -1.794001e-03
4.143606e-06 1.234809e-03 -1.776307e-03
4.376799e-05 1.236102e-03 -1.740968e-03
4.017262e-05 1.242823e-03 -1.746690e-03
9.717204e-06 1.247892e-03 -1.788328e-03
1.790377e-05 1.249033e-03 -1.787270e-03
5.920059e-05 1.252643e-03 -1.751930e-03
7.768760e-05 1.262284e-03 -1.739862e-03
3.780200e-05 1.273273e-03 -1.767653e-03
1.091645e-05 1.278042e-03 -1.793713e-03
3.655464e-05 1.280530e-03 -1.760922e-03
4.969459e-05 1.286959e-03 -1.746593e-03
2.554188e-05 1.294091e-03 -1.780635e-03
5.254969e-06 1.297454e-03 -1.803714e-03
3.321076e-05 1.299164e-03 -1.768134e-03
6.844021e-05 1.305285e-03 -1.731111e-03
2.294437e-05 1.315056e-03 -1.770826e-03
-6.423745e-06 1.317739e-03 -1.807416e-03
4.190083e-05 1.317495e-03 -1.774048e-03
5.659462e-05 1.325063e-03 -1.743997e-03
-2.159782e-06 1.333669e-03 -1.768759e-03
-1.948789e-05 1.332486e-03 -1.798906e-03
1.769937e-05 1.329677e-03 -1.780731e-03
3.588685e-05 1.333510e-03 -1.755729e-03
1.248145e-05 1.339463e-03 -1.766595e-03
-2.418235e-05 1.340690e-03 -1.800059e-03
-1.849053e-05 1.337019e-03 -1.785683e-03
5.061787e-06 1.335102e-03 -1.755584e-03
-4.752313e-06 1.336310e-03 -1.761979e-03
-3.327989e-05 1.334883e-03 -1.795059e-03
-8.171735e-06 1.329488e-03 -1.787270e-03
2.699356e-05 1.328989e-03 -1.749478e-03
1.712019e-05 1.333478e-03 -1.741978e-03
-2.671871e-05 1.335005e-03 -1.784770e-03
-2.574570e-05 1.330234e-03 -1.794482e-03
1.177236e-05 1.326998e-03 -1.756883e-03
-3.792484e-07 1.329388e-03 -1.745680e-03
-2.976885e-05 1.328583e-03 -1.772413e-03
-4.787447e-05 1.322936e-03 -1.786645e-03
1.459444e-05 1.315713e-03 -1.749526e-03
1.775192e-05 1.318229e-03 -1.750488e-03
-3.486241e-05 1.320694e-03 -1.786501e-03
-5.734321e-05 1.314856e-03 -1.806454e-03
-2.353124e-05 1.306623e-03 -1.784241e-03
3.953218e-06 1.304285e-03 -1.752363e-03
-7.872465e-06 1.304859e-03 -1.767653e-03
-2.555673e-05 1.302687e-03 -1.797079e-03
-1.046569e-06 1.298852e-03 -1.778087e-03
1.632501e-05 1.299606e-03 -1.757940e-03
5.270112e-06 1.302487e-03 -1.758710e-03
-4.156619e-05 1.302252e-03 -1.793472e-03
-2.522277e-05 1.295621e-03 -1.792751e-03
3.882082e-05 1.292881e-03 -1.753325e-03
1.203942e-05 1.299228e-03 -1.758373e-03
-3.893765e-05 1.300249e-03 -1.798906e-03
-2.706682e-05 1.294100e-03 -1.786645e-03
1.879710e-05 1.290595e-03 -1.745295e-03
1.663146e-05 1.293578e-03 -1.754383e-03
-8.718506e-06 1.295417e-03 -1.782318e-03
-6.282481e-06 1.293364e-03 -1.776211e-03
2.696924e-05 1.292520e-03 -1.745199e-03
2.793488e-05 1.296843e-03 -1.739381e-03
-1.063436e-05 1.300217e-03 -1.769095e-03
-1.940864e-05 1.297452e-03 -1.790828e-03
1.327608e-08 1.294859e-03 -1.763037e-03
1.669668e-05 1.295580e-03 -1.740199e-03
-7.536395e-06 1.297503e-03 -1.765393e-03
-1.822523e-05 1.295210e-03 -1.787462e-03
1.604967e-05 1.292477e-03 -1.758806e-03
3.856975e-05 1.295488e-03 -1.737314e-03
-4.788519e-06 1.301007e-03 -1.770730e-03
-2.824737e-05 1.299511e-03 -1.796550e-03
1.052302e-05 1.295359e-03 -1.771836e-03
4.083293e-05 1.297840e-03 -1.732794e-03
8.999648e-06 1.303758e-03 -1.752844e-03
-3.791566e-05 1.303987e-03 -1.792463e-03
-2.176649e-05 1.298030e-03 -1.782173e-03
2.760390e-05 1.295635e-03 -1.747603e-03
-8.999999e-06 1.300169e-03 -1.764624e-03
-3.822365e-05 1.298237e-03 -1.795155e-03
-3.317094e-07 1.292223e-03 -1.782318e-03
3.879842e-05 1.292952e-03 -1.739670e-03
2.237907e-05 1.299033e-03 -1.740872e-03
-2.442538e-05 1.301410e-03 -1.783135e-03
-2.808700e-05 1.297091e-03 -1.784529e-03
1.264910e-05 1.293329e-03 -1.751305e-03
2.898854e-05 1.295789e-03 -1.733371e-03
-2.814973e-06 1.299225e-03 -1.765201e-03
-1.939721e-05 1.297681e-03 -1.790539e-03
1.518792e-05 1.295262e-03 -1.755969e-03
1.097755e-05 1.298270e-03 -1.749623e-03
-3.167211e-05 1.299762e-03 -1.771403e-03
-4.314909e-05 1.294026e-03 -1.797559e-03
1.091323e-05 1.287901e-03 -1.768759e-03
3.587324e-05 1.290588e-03 -1.739045e-03
2.542804e-08 1.295808e-03 -1.762941e-03
-3.632014e-05 1.294842e-03 -1.801310e-03
1.348526e-05 1.289705e-03 -1.768038e-03
3.735510e-05 1.292616e-03 -1.751834e-03
1.792903e-05 1.298723e-03 -1.759816e-03
-3.301646e-05 1.300626e-03 -1.784385e-03
-2.375685e-05 1.295213e-03 -1.776452e-03
1.423057e-05 1.292372e-03 -1.752123e-03
1.885495e-05 1.295009e-03 -1.753950e-03
-2.403971e-05 1.297083e-03 -1.787462e-03
-1.257911e-05 1.293074e-03 -1.781019e-03
3.094728e-05 1.291908e-03 -1.742122e-03
7.129963e-06 1.296877e-03 -1.748805e-03
-4.084543e-05 1.297156e-03 -1.794819e-03
-2.844459e-05 1.290718e-03 -1.794963e-03
2.268329e-05 1.287334e-03 -1.751690e-03
9.155083e-06 1.291390e-03 -1.742987e-03
-3.454726e-05 1.292012e-03 -1.784818e-03
-3.592230e-05 1.286174e-03 -1.797655e-03
1.750427e-06 1.281438e-03 -1.769144e-03
2.179910e-05 1.282785e-03 -1.741929e-03
3.272298e-06 1.285590e-03 -1.758421e-03
-3.170188e-05 1.284791e-03 -1.788184e-03
3.684986e-06 1.280128e-03 -1.760152e-03
1.217452e-05 1.281350e-03 -1.747218e-03
-2.431197e-05 1.283075e-03 -1.773086e-03
-2.726702e-05 1.278625e-03 -1.792222e-03
5.229026e-06 1.274593e-03 -1.771018e-03
4.285338e-05 1.276300e-03 -1.744237e-03
7.399031e-06 1.282905e-03 -1.761450e-03
-5.102025e-05 1.283146e-03 -1.810301e-03
-1.659651e-05 1.275840e-03 -1.792511e-03
4.301626e-05 1.274694e-03 -1.746257e-03
1.996852e-05 1.281538e-03 -1.759671e-03
-2.904487e-05 1.283865e-03 -1.790395e-03
-1.328070e-05 1.279112e-03 -1.780202e-03
3.786364e-05 1.277779e-03 -1.748709e-03
1.733125e-05 1.283983e-03 -1.753806e-03
-3.129009e-05 1.285918e-03 -1.793953e-03
-2.701622e-05 1.280874e-03 -1.789770e-03
1.228218e-05 1.277493e-03 -1.745584e-03
2.456872e-05 1.279630e-03 -1.733756e-03
-1.799035e-05 1.282234e-03 -1.769191e-03
-5.359552e-05 1.278365e-03 -1.795684e-03
-3.470211e-05 1.270770e-03 -1.771403e-03
-1.600291e-05 1.266496e-03 -1.736881e-03
-5.192855e-05 1.263188e-03 -1.768855e-03
-8.523610e-05 1.254087e-03 -1.791116e-03
-4.416251e-05 1.241141e-03 -1.760777e-03
-3.044596e-05 1.234925e-03 -1.737362e-03
-5.650261e-05 1.229633e-03 -1.758854e-03
-7.834965e-05 1.219603e-03 -1.788424e-03
-5.863211e-05 1.207433e-03 -1.769817e-03
-3.685320e-05 1.199165e-03 -1.743035e-03
-5.228066e-05 1.193293e-03 -1.770970e-03
-5.481671e-05 1.184530e-03 -1.797655e-03
-2.925675e-05 1.176183e-03 -1.789001e-03
3.110526e-05 1.172990e-03 -1.744334e-03
5.523725e-05 1.177947e-03 -1.746497e-03
1.690639e-05 1.185313e-03 -1.791309e-03
2.978274e-05 1.187774e-03 -1.791549e-03
9.321170e-05 1.193630e-03 -1.741833e-03
7.777028e-05 1.208303e-03 -1.751209e-03
3.223820e-05 1.219601e-03 -1.795059e-03
4.696032e-05 1.224496e-03 -1.787607e-03
8.494849e-05 1.232618e-03 -1.746882e-03
7.364270e-05 1.246231e-03 -1.741641e-03
1.824111e-05 1.256821e-03 -1.776163e-03
1.587170e-05 1.258854e-03 -1.787366e-03
7.112961e-05 1.261870e-03 -1.747363e-03
7.243940e-05 1.273351e-03 -1.734237e-03
4.421916e-05 1.283780e-03 -1.765008e-03
9.262992e-06 1.289551e-03 -1.782414e-03
2.169149e-05 1.291115e-03 -1.764431e-03
3.074877e-05 1.295423e-03 -1.744863e-03
-1.427915e-05 1.300015e-03 -1.772365e-03
-2.806894e-05 1.297073e-03 -1.790972e-03
-5.063909e-07 1.292877e-03 -1.781356e-03
3.332834e-05 1.294143e-03 -1.754334e-03
2.822805e-05 1.299675e-03 -1.758037e-03
-2.946197e-05 1.303034e-03 -1.795348e-03
-5.648809e-05 1.298567e-03 -1.784578e-03
-6.610453e-05 1.290971e-03 -1.748805e-03
-6.453340e-05 1.280936e-03 -1.743612e-03
-7.860396e-05 1.269524e-03 -1.780250e-03
-1.013993e-04 1.256691e-03 -1.779625e-03
-1.453895e-04 1.241639e-03 -1.746882e-03
-2.204098e-04 1.219246e-03 -1.755825e-03
-2.533737e-04 1.184175e-03 -1.800444e-03
1.931226e-07 1.144666e-03 -1.805252e-03
3.551075e-04 1.146129e-03 -1.754863e-03
4.542861e-04 1.202252e-03 -1.744959e-03
3.452651e-04 1.272471e-03 -1.774673e-03
3.413418e-04 1.325581e-03 -1.777750e-03
3.450325e-04 1.379106e-03 -1.751353e-03
2.642269e-04 1.433516e-03 -1.738660e-03
9.393840e-05 1.474082e-03 -1.771355e-03
-2.845027e-05 1.487855e-03 -1.792174e-03
-3.944982e-05 1.483854e-03 -1.761979e-03
-6.191872e-05 1.478484e-03 -1.740872e-03
-1.204216e-04 1.468423e-03 -1.774336e-03
-1.604104e-04 1.448935e-03 -1.802993e-03
-1.166193e-04 1.424472e-03 -1.766739e-03
-8.342960e-05 1.407054e-03 -1.749526e-03
-9.190843e-05 1.394136e-03 -1.765489e-03
-1.339681e-04 1.378931e-03 -1.805637e-03
-7.599103e-05 1.358458e-03 -1.781837e-03
-3.168780e-05 1.347715e-03 -1.744334e-03
-5.269475e-05 1.342855e-03 -1.758085e-03
-8.079679e-05 1.333694e-03 -1.799386e-03
-6.283800e-05 1.321120e-03 -1.792703e-03
-9.751071e-06 1.312556e-03 -1.748084e-03
-1.895005e-05 1.311370e-03 -1.746449e-03
-5.932703e-05 1.307320e-03 -1.794338e-03
-6.486815e-05 1.297811e-03 -1.802752e-03
-1.695355e-05 1.288987e-03 -1.756546e-03
-3.438621e-06 1.287012e-03 -1.743853e-03
-3.382950e-05 1.285572e-03 -1.769240e-03
-3.786802e-05 1.279129e-03 -1.784145e-03
-2.550891e-06 1.273574e-03 -1.753469e-03
1.185825e-05 1.273734e-03 -1.731015e-03
-2.782266e-05 1.274517e-03 -1.770874e-03
-4.889445e-05 1.269144e-03 -1.795636e-03
-6.389728e-06 1.262027e-03 -1.768182e-03
2.838253e-05 1.262065e-03 -1.733275e-03
-9.055796e-07 1.265823e-03 -1.763710e-03
-2.212532e-05 1.264540e-03 -1.790347e-03
1.273657e-05 1.261171e-03 -1.766114e-03
3.266492e-05 1.263986e-03 -1.735294e-03
-1.541287e-05 1.268743e-03 -1.758421e-03
-3.041514e-05 1.265233e-03 -1.782702e-03
-2.939832e-05 1.260129e-03 -1.774096e-03
6.212685e-06 1.256444e-03 -1.746545e-03
2.204534e-06 1.257664e-03 -1.752026e-03
-6.114396e-05 1.256921e-03 -1.802704e-03
-3.684390e-05 1.247574e-03 -1.795780e-03
2.733942e-05 1.243252e-03 -1.741401e-03
2.792004e-07 1.247714e-03 -1.750584e-03
-4.755215e-05 1.246887e-03 -1.786885e-03
-4.378248e-05 1.238982e-03 -1.799483e-03
4.030143e-06 1.233385e-03 -1.762845e-03
1.621773e-05 1.234996e-03 -1.748372e-03
-2.294291e-05 1.236846e-03 -1.782077e-03
-4.556890e-05 1.232595e-03 -1.787270e-03
-8.442279e-06 1.225999e-03 -1.754623e-03
8.228204e-06 1.225340e-03 -1.738852e-03
-2.900270e-05 1.225885e-03 -1.765441e-03
-5.443567e-05 1.220162e-03 -1.786308e-03
-2.339952e-05 1.211868e-03 -1.771355e-03
-1.186494e-05 1.209372e-03 -1.753517e-03
-4.063767e-05 1.207566e-03 -1.774336e-03
-6.612967e-05 1.200459e-03 -1.801839e-03
-1.581938e-05 1.190632e-03 -1.771644e-03
2.035936e-05 1.189169e-03 -1.740391e-03
-1.922882e-06 1.192170e-03 -1.758421e-03
-4.602285e-05 1.190737e-03 -1.789626e-03
-1.042112e-05 1.183407e-03 -1.778231e-03
3.528339e-05 1.182803e-03 -1.745199e-03
1.534389e-05 1.188462e-03 -1.758662e-03
-2.650211e-05 1.189968e-03 -1.789578e-03
-1.496858e-05 1.185551e-03 -1.782558e-03
1.506202e-05 1.184128e-03 -1.753709e-03
9.463548e-06 1.187034e-03 -1.762027e-03
-1.839335e-05 1.188013e-03 -1.786260e-03
-1.017204e-05 1.184649e-03 -1.790010e-03
3.731132e-05 1.183948e-03 -1.750296e-03
4.054679e-05 1.190232e-03 -1.752748e-03
2.185399e-05 1.195992e-03 -1.781933e-03
2.212843e-05 1.198747e-03 -1.786549e-03
6.598458e-05 1.202682e-03 -1.753180e-03
8.334882e-05 1.213542e-03 -1.730871e-03
4.614582e-05 1.225502e-03 -1.765441e-03
1.271434e-05 1.231528e-03 -1.792319e-03
4.418663e-05 1.233952e-03 -1.766980e-03
6.974333e-05 1.241861e-03 -1.732409e-03
3.670203e-05 1.252063e-03 -1.758662e-03
4.849057e-06 1.256510e-03 -1.792511e-03
3.773151e-05 1.257476e-03 -1.768518e-03
7.013770e-05 1.264304e-03 -1.737987e-03
3.124973e-05 1.275017e-03 -1.756306e-03
6.823299e-06 1.278721e-03 -1.791693e-03
3.659759e-05 1.279766e-03 -1.780298e-03
7.448680e-05 1.286640e-03 -1.739718e-03
4.697637e-05 1.298285e-03 -1.743709e-03
-1.228518e-05 1.304224e-03 -1.790395e-03
-1.546305e-06 1.302091e-03 -1.775250e-03
3.222557e-05 1.302601e-03 -1.738660e-03
4.012445e-05 1.307781e-03 -1.732602e-03
3.725108e-07 1.312577e-03 -1.770634e-03
-3.083195e-05 1.311664e-03 -1.794097e-03
6.281613e-06 1.308014e-03 -1.754334e-03
-1.871406e-06 1.309773e-03 -1.748709e-03
-3.254725e-05 1.308907e-03 -1.773278e-03
-3.004052e-05 1.302940e-03 -1.783856e-03
2.578633e-05 1.298752e-03 -1.747074e-03
4.552072e-05 1.303298e-03 -1.720822e-03
-1.384922e-05 1.309153e-03 -1.766980e-03
-3.181789e-05 1.305967e-03 -1.794723e-03
1.303542e-05 1.301646e-03 -1.756017e-03
3.222590e-05 1.304476e-03 -1.735967e-03
-2.707273e-06 1.309118e-03 -1.758902e-03
-4.214368e-05 1.307542e-03 -1.787510e-03
-6.808936e-06 1.301104e-03 -1.764864e-03
2.618027e-05 1.301002e-03 -1.734669e-03
-3.551985e-06 1.304915e-03 -1.755440e-03
-2.429811e-05 1.303303e-03 -1.789241e-03
2.111899e-05 1.299524e-03 -1.760248e-03
4.334008e-05 1.303411e-03 -1.722793e-03
-1.028460e-05 1.309772e-03 -1.748565e-03
-5.403914e-05 1.307128e-03 -1.791261e-03
-2.812273e-05 1.298666e-03 -1.781404e-03
9.327221e-06 1.295401e-03 -1.748661e-03
1.682502e-05 1.297519e-03 -1.743035e-03
-1.542453e-05 1.299190e-03 -1.775586e-03
-1.109190e-05 1.296107e-03 -1.785587e-03
2.649202e-05 1.295353e-03 -1.745488e-03
2.820999e-05 1.300078e-03 -1.727842e-03
-1.234177e-05 1.303271e-03 -1.773327e-03
-3.401279e-05 1.300565e-03 -1.797559e-03
5.855113e-06 1.296373e-03 -1.757267e-03
3.123972e-05 1.298298e-03 -1.731207e-03
-3.105555e-07 1.302395e-03 -1.764287e-03
-1.571051e-05 1.301303e-03 -1.784433e-03
2.100637e-05 1.299204e-03 -1.756210e-03
4.488523e-05 1.303357e-03 -1.731592e-03
8.508576e-06 1.309874e-03 -1.762460e-03
-1.680684e-05 1.310236e-03 -1.789193e-03
1.760378e-05 1.307895e-03 -1.752123e-03
5.336361e-05 1.311225e-03 -1.724620e-03
8.360306e-06 1.319062e-03 -1.760248e-03
-1.844582e-05 1.319520e-03 -1.787270e-03
2.393692e-07 1.316654e-03 -1.773519e-03
3.702192e-05 1.317855e-03 -1.734092e-03
7.533975e-06 1.323687e-03 -1.752171e-03
-4.606663e-05 1.323966e-03 -1.792030e-03
-3.300028e-05 1.316813e-03 -1.781356e-03
2.577799e-05 1.312847e-03 -1.744430e-03
4.237006e-05 1.317411e-03 -1.734862e-03
-1.591817e-05 1.322762e-03 -1.780683e-03
-9.057478e-06 1.319795e-03 -1.783279e-03
3.640918e-05 1.319333e-03 -1.741352e-03
3.067297e-05 1.325502e-03 -1.732938e-03
-1.366747e-05 1.329262e-03 -1.771547e-03
-1.411325e-05 1.326294e-03 -1.787270e-03
3.849522e-05 1.324892e-03 -1.741545e-03
4.622338e-05 1.331396e-03 -1.725774e-03
