-6.470734999999999974e-05
-1.108673000000000015e-04
-1.520110999999999988e-04
-1.384699999999999939e-04
-1.210591999999999945e-04
-1.102143999999999997e-04
-1.361248000000000015e-04
-1.274679000000000133e-04
-1.040542999999999975e-04
-1.075882000000000010e-04
-1.274809000000000012e-04
-1.336734000000000067e-04
-1.181780999999999994e-04
-9.972107999999999493e-05
-1.035133999999999973e-04
-1.115934000000000012e-04
-9.636426000000000562e-05
-8.486515000000000519e-05
-1.053111999999999955e-04
-9.529658000000000367e-05
-8.774803000000000290e-05
-9.178568999999999704e-05
-8.971037000000000553e-05
-8.210857000000000658e-05
-7.690397000000000563e-05
-7.460948999999999706e-05
-6.792815000000000116e-05
-6.658048999999999652e-05
-6.196051000000000488e-05
-5.456839999999999748e-05
-7.707754000000000471e-05
-7.922051999999999957e-05
-6.855475999999999345e-05
-4.486871000000000023e-05
-2.998907999999999918e-05
-4.748235000000000118e-05
-6.666282999999999681e-05
-6.164593999999999478e-05
-4.085482000000000198e-05
-3.237030999999999806e-05
-1.626549999999999868e-05
-3.368097000000000289e-05
-5.718559000000000283e-05
-5.917718999999999914e-05
-5.783708000000000089e-05
-5.822564999999999707e-05
-3.683828000000000130e-05
-2.431283000000000080e-05
-3.431259000000000007e-05
-3.599552999999999992e-05
-4.674945000000000012e-05
-3.577815999999999966e-05
-2.614152999999999906e-05
-1.453761999999999923e-05
-2.960116000000000103e-05
-2.229929000000000110e-05
-2.001645000000000044e-05
-1.154130999999999979e-05
-1.120219999999999923e-05
4.997000999999999999e-06
3.239247999999999721e-05
2.126787999999999872e-05
2.381305000000000064e-05
3.128756999999999968e-05
4.857146999999999864e-05
6.354804999999999883e-05
7.328170000000000007e-05
9.695871999999999857e-05
1.018668999999999987e-04
1.178899000000000044e-04
1.317071999999999915e-04
1.290492999999999979e-04
1.238153999999999936e-04
1.328767000000000012e-04
1.264202000000000132e-04
1.304051000000000027e-04
1.296253999999999939e-04
1.290503999999999935e-04
1.319162000000000026e-04
1.247352999999999982e-04
1.289717999999999973e-04
1.288502000000000018e-04
1.150854999999999944e-04
1.027492999999999956e-04
1.004616000000000005e-04
9.905606999999999975e-05
9.534961000000000001e-05
8.707265000000000057e-05
8.013368999999999408e-05
6.358882000000000488e-05
7.052969999999999661e-05
7.222143000000000150e-05
5.760253999999999890e-05
4.518474999999999797e-05
4.861109999999999948e-05
4.938053000000000136e-05
4.522508000000000035e-05
5.142193999999999915e-05
4.338193000000000089e-05
4.481101000000000246e-05
4.137675999999999719e-05
4.030293999999999939e-05
3.910722999999999928e-05
2.723648000000000117e-05
3.363051999999999730e-05
2.408680000000000120e-05
2.607660000000000034e-05
8.513197000000000207e-06
1.051091999999999931e-05
1.005535999999999922e-05
1.073445000000000020e-05
1.932010000000000159e-05
4.771624000000000006e-06
-5.386866000000000162e-07
2.518746999999999942e-06
9.525999999999999935e-06
1.143801000000000029e-05
1.696757000000000126e-05
1.769309000000000105e-05
2.080640000000000123e-05
3.505981000000000086e-06
-8.435139999999999338e-06
-2.702145000000000113e-06
9.650176000000000557e-06
6.155583000000000150e-06
2.129748999999999995e-06
-2.749526999999999789e-06
-1.832464999999999912e-06
-8.363200999999999212e-06
-2.671816000000000001e-06
1.407615000000000075e-06
-6.287766999999999899e-07
4.640652000000000042e-07
2.193540000000000093e-06
8.237458999999999832e-06
-6.329565999999999836e-06
-1.340552999999999936e-05
-1.252899000000000081e-05
-5.313554000000000253e-06
2.295913000000000053e-06
-3.906888000000000328e-06
1.286295999999999966e-06
1.427303999999999980e-06
-8.472366000000000733e-06
-1.571639000000000014e-05
-1.506304000000000071e-05
-1.535417000000000075e-05
-2.161592999999999956e-05
-1.673833000000000073e-05
-2.938249999999999863e-05
-1.599683000000000113e-05
-2.672332000000000014e-05
-2.947087000000000063e-05
-2.610677000000000009e-05
-5.427531999999999994e-05
-6.336156000000000394e-05
-7.235248999999999478e-05
-8.477996999999999595e-05
-7.299681999999999341e-05
-9.034740999999999562e-05
-1.117430999999999974e-04
-1.201459999999999979e-04
-1.248354999999999875e-04
-1.142485000000000023e-04
-1.088353999999999982e-04
-9.368115999999999737e-05
-6.572267999999999871e-05
-5.178488999999999879e-05
-3.987206999999999855e-05
-2.351821000000000026e-06
5.466360999999999856e-06
3.007759000000000081e-05
4.139808999999999855e-05
6.018934999999999997e-05
5.877150999999999865e-05
5.766966999999999905e-05
6.549772999999999674e-05
7.955205000000000349e-05
7.433799000000000483e-05
7.421829999999999378e-05
6.402349000000000050e-05
4.440070999999999726e-05
3.721821000000000292e-05
4.832107999999999917e-05
3.672770999999999805e-05
3.925100000000000079e-05
3.640718999999999862e-05
3.210844000000000187e-05
2.987136000000000058e-05
1.852004000000000166e-05
2.480915999999999846e-06
-1.615456000000000005e-05
-5.150156999999999961e-05
-5.438102000000000132e-05
-4.016118999999999690e-05
-9.919062999999999394e-05
-1.784818000000000027e-04
-2.532723999999999978e-04
-2.589447000000000146e-04
-5.561680999999999987e-05
2.113353999999999960e-04
3.775850999999999773e-04
3.841181000000000044e-04
3.573002000000000252e-04
3.464900000000000250e-04
3.084793999999999861e-04
2.417211000000000056e-04
1.259402999999999976e-04
1.675485999999999835e-05
-4.310357000000000310e-05
-6.125282000000000556e-05
-8.469253000000000480e-05
-1.337006999999999920e-04
-1.707304999999999945e-04
-1.426199000000000065e-04
-1.219032999999999955e-04
-1.309342999999999976e-04
-1.455732999999999908e-04
-1.188459000000000000e-04
-1.053747999999999995e-04
-1.203574000000000007e-04
-1.332677000000000048e-04
-1.347235000000000121e-04
-1.159772000000000049e-04
-1.017160999999999933e-04
-1.171566999999999959e-04
-1.230055999999999934e-04
-9.683632000000000123e-05
-9.575048000000000283e-05
-1.094572000000000063e-04
-1.036940999999999937e-04
-1.024859999999999942e-04
-9.466229000000000266e-05
-1.058999000000000057e-04
-9.922433999999999399e-05
-8.941261000000000586e-05
-7.847067000000000538e-05
-5.819474999999999708e-05
-7.241410999999999573e-05
-8.083614000000000630e-05
-8.677648000000000371e-05
-8.054304999999999451e-05
-6.654402000000000667e-05
-4.407941999999999817e-05
-5.290265000000000077e-05
-6.221702000000000558e-05
-6.269747000000000536e-05
-5.519372000000000118e-05
-5.925814999999999777e-05
-5.516750999999999724e-05
-5.590145000000000330e-05
-7.012928999999999886e-05
-6.433361999999999816e-05
-4.926745999999999941e-05
-4.139276999999999909e-05
-3.849566000000000202e-05
-4.717225999999999955e-05
-5.449971999999999732e-05
-5.146946000000000306e-05
-4.377597000000000026e-05
-4.073518000000000120e-05
-4.716531000000000125e-05
-3.478814000000000266e-05
-2.095404999999999973e-05
-1.715596000000000032e-05
-1.358935999999999960e-05
-2.796572999999999931e-06
3.974198999999999759e-06
-1.244077000000000083e-05
-1.227946000000000050e-05
6.418215000000000009e-06
2.202240999999999842e-05
2.681569000000000075e-05
5.431322000000000173e-05
5.262805000000000174e-05
4.269060000000000086e-05
6.652479000000000313e-05
8.289204999999999523e-05
8.407165999999999392e-05
9.066049999999999706e-05
1.023852000000000036e-04
1.053415999999999944e-04
1.176181000000000047e-04
1.310747000000000073e-04
1.174354999999999974e-04
1.023176000000000044e-04
1.129023000000000049e-04
1.228319000000000123e-04
1.180761999999999995e-04
1.274915000000000109e-04
1.230430999999999875e-04
9.383345999999999929e-05
1.003105999999999947e-04
9.724291999999999832e-05
7.834185000000000617e-05
7.982965000000000232e-05
8.806283000000000199e-05
6.724560999999999939e-05
4.832629999999999841e-05
7.919314999999999580e-05
7.601538999999999659e-05
5.375049999999999978e-05
4.052485999999999946e-05
4.174094000000000155e-05
3.755305000000000123e-05
3.998728000000000113e-05
4.314001999999999832e-05
3.776587000000000168e-05
2.984630999999999986e-05
2.341877999999999874e-05
3.391364000000000282e-05
2.868293000000000153e-05
2.315160000000000040e-05
1.999477000000000169e-05
1.372499999999999988e-05
1.758698999999999880e-05
3.718922000000000102e-05
2.305144000000000033e-05
2.358919000000000039e-05
2.602402000000000160e-05
2.217133999999999837e-05
1.817865999999999901e-06
1.884661000000000081e-05
1.554231999999999996e-05
-1.564728999999999982e-06
2.041085000000000042e-06
2.567524000000000051e-05
2.693736000000000123e-05
2.645260999999999880e-05
1.571127000000000111e-05
1.862329000000000106e-05
1.372038000000000025e-05
5.953391000000000002e-06
1.084738999999999983e-05
3.919634999999999615e-06
1.758887999999999888e-05
-5.062911000000000356e-06
6.955407000000000337e-06
1.140355000000000028e-05
3.661794000000000079e-06
9.179200999999999531e-06
2.092789999999999999e-05
1.631062000000000072e-05
9.920515999999999734e-06
5.693120000000000305e-06
-9.527815999999999242e-06
-1.410564000000000036e-05
2.680697000000000145e-06
-7.541716999999999980e-06
-3.101796999999999806e-05
-1.939327000000000076e-05
5.231427999999999509e-07
-4.766292000000000206e-06
1.168882999999999935e-05
-4.119048000000000238e-07
-1.999743000000000142e-05
-1.828625999999999863e-05
-3.824040000000000067e-05
-1.220420999999999983e-05
-7.895242999999999516e-06
-2.472552000000000040e-05
-2.264811000000000160e-05
7.651217000000000372e-06
-9.005615999999999396e-06
-1.380863000000000064e-05
-1.306819000000000066e-05
-3.288780000000000045e-05
-6.454007999999999414e-05
-6.626686999999999866e-05
-7.792259000000000436e-05
-7.953085999999999836e-05
-9.671116000000000055e-05
-8.666059000000000099e-05
-6.441180000000000560e-05
-1.065779999999999950e-04
-1.198778000000000061e-04
-1.161792999999999940e-04
-1.265539999999999948e-04
-1.078492000000000041e-04
-6.145265999999999923e-05
-4.289929999999999769e-05
-4.003702999999999841e-05
-7.895464000000000746e-06
2.196709000000000113e-05
1.357583000000000009e-05
2.169705999999999992e-05
5.045070000000000132e-05
4.453581000000000212e-05
5.410525000000000176e-05
7.099261000000000265e-05
5.595301999999999915e-05
5.332239000000000228e-05
4.383136999999999976e-05
4.622051999999999704e-05
5.303287999999999698e-05
4.835659999999999709e-05
4.145762000000000237e-05
4.176766000000000051e-05
2.655891999999999880e-05
1.702839000000000045e-05
3.632687999999999803e-05
2.545188999999999866e-05
2.053243999999999954e-05
-2.236321999999999847e-06
-4.041303999999999686e-05
-6.432165000000000105e-05
-6.524838999999999617e-05
-5.317172999999999989e-05
-7.165528999999999746e-05
-1.365687999999999993e-04
-2.213980999999999903e-04
-2.710522999999999730e-04
-7.983320999999999387e-05
1.547724999999999958e-04
2.901838999999999916e-04
3.266300000000000084e-04
3.133718000000000072e-04
2.867567999999999918e-04
2.739563999999999780e-04
2.517126999999999863e-04
1.590713999999999963e-04
3.254280999999999683e-05
-2.008419999999999992e-05
-2.264827999999999994e-05
-6.340911999999999710e-05
-1.008005000000000050e-04
-1.479174999999999945e-04
-1.463484000000000031e-04
-1.103365999999999966e-04
-1.156347999999999995e-04
-1.351219999999999982e-04
-1.246715999999999872e-04
-1.176398999999999983e-04
-1.263783999999999893e-04
-1.268550999999999978e-04
-1.112174000000000035e-04
-9.835417999999999960e-05
-1.261683000000000097e-04
-1.388724000000000089e-04
-1.166436000000000024e-04
-1.003735000000000038e-04
-8.586410999999999740e-05
-9.012256000000000065e-05
-9.630155999999999688e-05
-1.005012000000000060e-04
-9.792953000000000020e-05
-1.039930999999999988e-04
-7.650391000000000526e-05
-3.802248000000000260e-05
-7.656177000000000067e-05
-8.710284999999999903e-05
-5.374462000000000179e-05
-7.902512000000000479e-05
-7.684874000000000446e-05
-4.727211999999999896e-05
-6.079819999999999669e-05
-5.682600000000000108e-05
-4.857298000000000263e-05
-3.882424000000000286e-05
-4.473985999999999892e-05
-7.103457999999999778e-05
-5.696141000000000051e-05
-1.596769999999999960e-05
4.985689999999999694e-06
-5.109487000000000230e-06
-2.948362000000000148e-05
-3.481168999999999670e-05
-3.926409000000000171e-05
-5.184238000000000220e-05
-1.842186999999999850e-05
-2.319278999999999856e-05
-1.144051999999999969e-05
-1.582430000000000026e-05
-2.156972999999999990e-05
-2.589814000000000138e-05
-2.068911999999999954e-05
3.613112000000000094e-06
1.541572000000000019e-05
6.459544000000000101e-06
2.981068000000000102e-05
2.135277000000000122e-05
2.163189000000000135e-05
1.218080999999999934e-05
2.501773000000000145e-05
2.145647000000000160e-05
4.097753000000000067e-05
6.301239999999999999e-05
5.883004000000000027e-05
5.861417999999999723e-05
6.093736000000000096e-05
8.285908999999999343e-05
1.024838000000000029e-04
1.067753999999999942e-04
1.087814999999999952e-04
1.175873999999999984e-04
1.130150999999999948e-04
1.233588000000000089e-04
1.298810999999999922e-04
1.146307999999999935e-04
1.255918000000000128e-04
1.383342999999999877e-04
1.341760999999999909e-04
5.031714000000000255e-05
6.981272999999999862e-05
1.270389000000000078e-04
1.247094000000000024e-04
1.267611999999999884e-04
1.344034999999999880e-04
7.606976000000000536e-05
5.290222999999999849e-05
6.095085999999999668e-05
7.407421999999999770e-05
6.975571999999999491e-05
6.159734999999999733e-05
8.369219999999999806e-05
6.302592999999999781e-05
4.199252999999999688e-05
3.333152999999999968e-05
4.405017999999999911e-05
4.774277999999999828e-05
4.041910000000000067e-05
3.956257999999999823e-05
3.732359000000000224e-05
5.401135999999999985e-05
4.214715999999999916e-05
1.964568999999999994e-05
2.259434000000000092e-05
3.564301999999999878e-05
2.704750000000000150e-05
3.356393000000000104e-05
-1.252550000000000061e-05
1.746322999999999907e-06
4.734866000000000010e-05
-1.932756999999999900e-05
5.952510999999999767e-05
4.394332999999999860e-05
-7.744725000000000418e-07
3.185138000000000335e-05
2.422004999999999861e-05
3.532435000000000171e-06
8.595179999999999545e-07
2.142469000000000103e-05
1.560457000000000093e-05
1.518143000000000044e-05
9.484127000000000074e-06
1.007030000000000081e-05
1.115258999999999989e-05
2.333027000000000050e-06
-1.348269999999999936e-07
1.011934000000000093e-06
7.339039999999999786e-06
-3.555546000000000093e-06
1.512740000000000021e-05
9.881489000000000505e-07
-8.184311000000000659e-06
-2.549979999999999936e-05
4.664752000000000159e-06
1.284297000000000013e-05
-1.015665000000000041e-05
6.089010999999999731e-07
9.384279000000000145e-06
-1.074182000000000077e-05
1.026233000000000039e-05
6.499136999999999707e-06
-4.218867000000000213e-07
-3.881941999999999941e-06
2.623527999999999880e-06
-1.537718999999999837e-05
-1.226401000000000051e-06
-2.164459999999999941e-05
-4.175369999999999971e-05
-8.290688000000000394e-07
9.773099000000000261e-06
-1.077412000000000045e-05
-4.992603000000000148e-06
-1.370316000000000010e-05
-6.381280999999999899e-06
-3.720652999999999900e-05
-3.108874000000000213e-05
-1.086733000000000053e-05
-2.541497999999999837e-05
-2.236534000000000024e-05
-1.643819000000000058e-05
3.121695000000000187e-06
-2.018161999999999804e-06
-2.664332000000000091e-05
-4.106535999999999878e-05
-4.494538999999999761e-05
-6.261214999999999988e-05
-6.295943999999999499e-05
-5.630433999999999835e-05
-8.198132999999999592e-05
-8.125208000000000625e-05
-9.961389000000000452e-05
-1.036043999999999935e-04
-1.241914000000000050e-04
-1.341139000000000036e-04
-1.276740000000000112e-04
-1.104628999999999957e-04
-9.327202999999999948e-05
-6.936429000000000195e-05
-4.462555999999999901e-05
-5.142723999999999722e-06
2.483180000000000169e-05
3.256882000000000033e-05
1.160210000000000027e-05
3.887297999999999725e-05
5.632990999999999817e-05
5.927633000000000240e-05
5.895188999999999979e-05
6.865312000000000313e-05
5.271709000000000318e-05
7.060354999999999930e-05
6.975675999999999990e-05
5.778042000000000133e-05
3.986200999999999953e-05
6.099380999999999938e-05
3.321610000000000204e-05
2.109515000000000080e-05
2.905020999999999914e-05
2.116593999999999949e-05
2.586282000000000050e-05
1.138609999999999929e-05
2.011677999999999885e-05
-2.826016000000000151e-06
-4.770320000000000094e-05
-6.004004999999999786e-05
-5.041663999999999711e-05
-8.642002000000000407e-05
-1.188729999999999984e-04
-1.790309999999999872e-04
-2.194244999999999995e-04
-2.656434000000000052e-04
-3.279890000000000203e-05
2.246241999999999965e-04
3.643011000000000144e-04
3.861234999999999971e-04
3.855603999999999889e-04
3.591817999999999769e-04
3.018070000000000193e-04
2.244443999999999953e-04
1.027800000000000019e-04
2.838626000000000103e-06
-8.692567000000000490e-05
-3.392560999999999992e-05
-6.806104000000000049e-05
-1.089554000000000038e-04
-1.202061999999999944e-04
-1.089027999999999969e-04
-1.043270000000000059e-04
-1.522856000000000112e-04
-1.589581000000000121e-04
-1.035782000000000038e-04
-9.832843000000000074e-05
-1.174743999999999946e-04
-1.241110999999999983e-04
-1.105211000000000013e-04
-1.075022000000000022e-04
-9.265376999999999500e-05
-1.034114000000000040e-04
-9.585071999999999494e-05
-1.117624000000000059e-04
-8.507522999999999691e-05
-1.009427999999999985e-04
-1.091693999999999987e-04
-9.830921999999999859e-05
-6.900791999999999506e-05
-5.581839000000000006e-05
-5.355854000000000170e-05
-8.669183000000000444e-05
-7.170632000000000297e-05
-5.880074999999999771e-05
-6.186488999999999714e-05
-4.620424999999999728e-05
-3.542891000000000296e-05
-6.403788000000000427e-05
-5.716124000000000026e-05
-4.890714000000000080e-05
-4.736662999999999681e-05
-3.391341000000000028e-05
-2.295083999999999997e-05
-3.901624999999999766e-05
-2.058665000000000050e-05
-4.974553000000000210e-05
-5.280117000000000323e-05
-5.679025000000000061e-05
-6.798437000000000382e-05
-2.691567999999999909e-05
-3.274644999999999883e-05
-3.392902000000000130e-05
-4.045974999999999832e-05
-3.375558999999999846e-05
-5.064675000000000090e-05
-3.284992000000000006e-05
-1.765072000000000166e-05
-3.298334000000000259e-05
-3.288454000000000279e-05
-9.898916999999999197e-06
-2.562775999999999940e-05
-3.180218999999999781e-05
-8.532797000000000832e-06
1.158982999999999996e-06
4.143702999999999686e-06
-7.960535999999999570e-06
1.612381000000000038e-05
2.982251999999999920e-05
1.798206999999999977e-05
3.533814000000000248e-05
3.103751000000000296e-05
4.264443000000000329e-05
5.472387999999999824e-05
8.639829000000000183e-05
1.187958000000000053e-04
1.010951000000000005e-04
9.727054000000000603e-05
9.785192000000000553e-05
1.125915000000000010e-04
1.280441999999999963e-04
1.424499000000000132e-04
1.031152999999999985e-04
1.220113999999999953e-04
9.581689000000000005e-05
1.139368999999999967e-04
1.003659000000000007e-04
9.457040999999999907e-05
9.861895999999999607e-05
9.986927999999999463e-05
1.063565999999999974e-04
8.003680000000000592e-05
1.033409000000000053e-04
1.214512999999999937e-04
6.012575000000000281e-05
9.060068000000000006e-05
6.491491000000000492e-05
4.305191000000000096e-05
7.180116999999999750e-05
5.681531999999999934e-05
4.110736000000000278e-05
1.171287999999999957e-05
1.907125000000000142e-05
2.735257000000000094e-05
1.935619999999999943e-05
2.092294999999999930e-05
1.653337999999999856e-05
3.400680000000000109e-05
3.126791999999999747e-07
-1.431683999999999971e-06
6.733771999999999875e-06
8.258868000000000630e-06
1.731139000000000096e-05
1.597916000000000169e-05
-1.197934000000000006e-05
4.519149000000000360e-06
1.538857999999999895e-05
2.186911999999999840e-05
-5.230681999999999668e-06
-2.461074000000000164e-06
8.714199999999999508e-07
2.083585000000000143e-05
9.972499000000000418e-06
1.353317999999999974e-05
1.298150999999999999e-05
-2.732101999999999952e-05
-7.196858000000000188e-07
4.886335000000000033e-06
-1.447271999999999922e-05
-1.998419999999999918e-06
1.644861999999999838e-05
4.459695999999999729e-05
8.991407000000000834e-06
-1.713166999999999856e-05
-8.455101000000000822e-06
-6.228513000000000314e-06
-1.982850999999999898e-05
1.344674999999999962e-06
1.231034000000000079e-05
-4.546842000000000131e-06
-1.636581999999999978e-05
1.442590000000000024e-05
2.574905000000000040e-06
-1.145594999999999998e-05
-5.812597000000000178e-06
3.870798000000000116e-07
1.495059000000000020e-06
-2.560759999999999857e-05
-4.710438999999999739e-07
5.549456999999999848e-06
-2.145651999999999832e-05
-2.555208999999999835e-07
-1.730768999999999899e-07
-1.354981999999999998e-05
-1.672207999999999898e-05
-1.805226000000000053e-05
-2.457613999999999947e-05
-7.043472999999999877e-06
-1.922459000000000155e-05
-1.818846000000000102e-05
-1.499623999999999993e-05
-1.232349000000000083e-05
-1.166516000000000030e-05
-4.311051999999999632e-06
-2.565941000000000104e-05
-3.812060000000000226e-05
-2.615251000000000145e-05
-2.339547000000000116e-05
-1.076066000000000075e-05
-3.864996000000000154e-06
-4.107802999999999742e-05
-5.032373999999999669e-05
-2.815104000000000144e-05
-1.423552999999999989e-05
-4.143260000000000036e-05
-8.680839999999999374e-06
1.959806999999999920e-05
-2.180431000000000131e-05
-3.933828000000000108e-05
-4.368513000000000165e-05
-1.841430000000000088e-05
-4.178223000000000332e-05
5.313341999999999695e-07
-5.693307000000000173e-06
-9.841559000000000280e-06
-3.613923000000000330e-05
-1.354493000000000010e-05
-1.786711999999999843e-05
-1.854668999999999911e-05
-3.465958000000000130e-05
-4.604973000000000269e-05
-5.777522999999999741e-05
-6.792702000000000343e-05
-1.116318999999999976e-04
-5.955078999999999841e-05
-8.402839000000000272e-05
-9.061973000000000456e-05
-1.032789000000000049e-04
-1.161118000000000019e-04
-1.094306999999999957e-04
-1.131733999999999963e-04
-7.402973000000000246e-05
-7.496163999999999334e-05
-4.633153999999999788e-05
2.116156999999999872e-05
1.077511999999999925e-05
4.225442000000000125e-05
1.378170999999999955e-05
7.733157999999999525e-05
9.042968000000000458e-05
5.603326000000000162e-05
5.715491999999999860e-05
5.696327000000000188e-05
6.144853999999999562e-05
1.000643999999999969e-04
9.507547999999999997e-05
6.519872000000000449e-05
5.118497999999999727e-05
3.444788999999999859e-05
3.845422999999999723e-05
6.842415000000000454e-05
2.969216000000000067e-05
2.190216999999999972e-05
3.940698000000000264e-05
7.309103999999999807e-05
3.131726000000000312e-05
1.059664000000000058e-05
-8.560428000000000161e-06
-6.707660999999999474e-05
-1.146152000000000000e-04
-7.770300999999999857e-05
-7.612207000000000554e-05
-1.389645000000000008e-04
-2.530567000000000059e-04
-3.168417999999999994e-04
-1.227954000000000068e-04
1.088357999999999990e-04
3.265310000000000218e-04
4.463165999999999748e-04
3.957039999999999776e-04
3.897374999999999798e-04
3.584017000000000214e-04
2.827152000000000202e-04
1.713827000000000015e-04
4.586947999999999709e-05
-4.597447000000000301e-05
-4.171890999999999864e-05
-4.575790999999999843e-05
-1.245451000000000012e-04
-1.568967000000000050e-04
-1.041871999999999975e-04
-9.415938000000000378e-05
-1.080067000000000039e-04
-1.105537000000000051e-04
-1.140249999999999933e-04
-1.058834000000000034e-04
-1.006656000000000006e-04
-9.263508000000000213e-05
-1.020787000000000024e-04
-9.999393000000000029e-05
-9.488623000000000174e-05
-1.200692000000000057e-04
-1.104657999999999953e-04
-1.100552999999999964e-04
-7.352918000000000604e-05
-5.979341000000000322e-05
-8.248493000000000242e-05
-6.418296000000000255e-05
-7.733753000000000491e-05
-7.317931999999999378e-05
-5.947340999999999950e-05
-3.804017000000000005e-05
-8.062857000000000043e-05
-4.606049999999999717e-05
-4.947093999999999700e-05
-5.125429000000000085e-05
-1.769660999999999996e-05
-4.191497999999999963e-05
-7.252386000000000260e-05
-5.238291999999999753e-05
-6.113385000000000423e-05
4.378333999999999744e-06
-3.326317000000000157e-05
-6.024544000000000031e-05
-4.318503000000000283e-05
-2.727866000000000082e-05
-5.180140000000000178e-05
-3.799471999999999865e-05
-6.634834000000000586e-05
-6.292598999999999957e-05
-1.767039999999999941e-05
-3.224026000000000089e-05
-4.438593000000000009e-05
-3.647870000000000024e-05
-2.860088000000000119e-05
-1.661192000000000069e-05
-9.948178999999999947e-06
-2.964305000000000073e-05
-3.686078000000000320e-05
1.537795999999999962e-07
-5.675394000000000163e-06
-1.052450000000000062e-05
-2.463357999999999938e-05
-2.982156999999999881e-06
5.378001000000000248e-06
-6.232685999999999672e-06
1.885005000000000090e-05
1.997642999999999942e-05
4.787666999999999981e-05
5.041722999999999772e-05
-5.539284000000000039e-06
5.137610999999999827e-05
7.523409999999999852e-05
6.510420000000000595e-05
9.942630000000000044e-05
1.099647000000000011e-04
6.636440000000000449e-05
1.102671999999999935e-04
1.047615999999999966e-04
1.223131000000000131e-04
1.160248000000000008e-04
1.493338000000000033e-04
1.296924999999999988e-04
1.120772000000000050e-04
1.137969000000000014e-04
1.092216000000000047e-04
1.034410000000000012e-04
1.081429999999999978e-04
1.096267999999999987e-04
9.975006000000000291e-05
9.438470000000000453e-05
1.164541999999999937e-04
1.097569000000000062e-04
7.330689000000000042e-05
9.580196999999999986e-05
6.680901000000000428e-05
7.895972999999999761e-05
7.170932999999999669e-05
1.969715999999999896e-05
4.058805000000000182e-05
6.676246000000000047e-05
4.231151999999999770e-05
3.920513999999999781e-05
3.991705000000000096e-05
1.139675999999999962e-05
8.355761000000000517e-06
4.835862000000000287e-05
8.159520999999999495e-05
5.182311000000000263e-05
1.926052000000000021e-06
-7.994425999999999723e-07
5.074064999999999674e-05
-1.366059000000000027e-05
2.466214000000000169e-05
4.322149999999999945e-05
-1.144092999999999957e-05
4.651013999999999986e-06
1.053615000000000076e-05
2.333022000000000039e-05
1.614000000000000132e-05
1.264716999999999982e-06
2.438785000000000063e-06
9.098178000000000302e-09
-1.467905000000000094e-06
-9.741265999999999714e-06
-1.197748999999999940e-05
-4.606782999999999939e-07
-8.740509000000000039e-06
-2.087318999999999793e-06
2.935114000000000034e-05
7.122279999999999849e-06
5.090962999999999999e-05
1.429760000000000013e-05
5.096001999999999630e-06
1.576704999999999956e-07
-2.747840000000000105e-05
-2.380874000000000068e-05
-1.530153000000000120e-05
-1.423442999999999917e-05
3.867648999999999907e-06
1.260996000000000014e-05
-7.516497000000000076e-06
-1.896552999999999865e-05
-2.137510000000000140e-05
-4.443670000000000096e-05
4.659540000000000284e-06
1.878942000000000145e-05
-1.598020999999999934e-06
2.009589000000000115e-05
-2.517555000000000073e-06
3.426972999999999859e-06
-2.774556000000000139e-05
-3.026914000000000069e-05
-1.459861000000000015e-05
-6.389861999999999808e-06
1.230605999999999954e-05
-1.742355000000000024e-05
-1.317099999999999977e-05
-5.055486000000000338e-05
3.829317999999999985e-05
2.270279999999999971e-06
7.733061000000000532e-06
-1.678256999999999880e-05
-3.995369000000000269e-05
3.776369000000000164e-06
-9.519891000000000499e-06
-4.065800000000000273e-05
-2.567152000000000117e-05
-5.329173999999999945e-05
-5.060701999999999985e-05
-2.858259999999999973e-06
-1.831396999999999908e-05
-1.461113999999999916e-05
-1.101263999999999965e-05
-1.024085999999999939e-05
-2.417074000000000162e-05
-5.464299999999999843e-05
-1.947387999999999862e-05
-2.521020999999999863e-05
-4.693808000000000072e-06
-4.222642000000000084e-05
-5.584694999999999899e-05
-4.601151999999999955e-05
-5.854251000000000347e-07
-5.463734000000000228e-05
-1.142610000000000060e-05
-3.769064999999999802e-05
-3.521658999999999684e-05
-1.121512000000000012e-05
-9.601855000000000584e-06
-2.061775000000000093e-05
-3.191275000000000036e-05
-4.915896999999999937e-05
-4.892683000000000264e-05
-3.404296000000000313e-05
-5.606497999999999799e-05
-7.735286999999999382e-05
-1.013697999999999997e-04
-9.348828000000000270e-05
-1.174625000000000023e-04
-9.186624999999999479e-05
-1.067048000000000020e-04
-1.201106000000000016e-04
-1.094579000000000011e-04
-1.208082999999999933e-04
-9.476505999999999558e-05
-9.734573999999999473e-05
-9.997077000000000643e-05
-2.775902999999999840e-05
2.896028999999999839e-07
1.440764999999999918e-06
1.371476000000000013e-05
7.613558999999999758e-06
3.511720000000000320e-05
5.880481999999999783e-05
5.199458999999999781e-05
3.309166999999999822e-05
5.735629999999999835e-05
7.949024000000000281e-05
9.098339999999999358e-05
7.273721000000000624e-05
1.621725000000000130e-05
6.917007999999999555e-05
6.291322000000000071e-05
4.082979999999999997e-05
5.660738000000000147e-05
3.304271000000000199e-05
3.941299000000000294e-05
5.738721999999999975e-05
4.569071000000000016e-05
3.162529999999999687e-05
-2.251330000000000009e-05
-3.461996000000000116e-05
-3.841266000000000298e-05
-8.072783000000000530e-05
-5.389184000000000070e-05
-7.108985000000000174e-05
-1.739168999999999882e-04
-2.162393999999999883e-04
-2.673066000000000201e-04
-5.684154999999999790e-05
2.544712999999999771e-04
3.627872999999999883e-04
3.654934000000000199e-04
3.653086999999999741e-04
3.226888999999999929e-04
3.107873000000000254e-04
2.343845000000000054e-04
1.342453999999999870e-04
2.887495000000000041e-05
-3.278758000000000296e-05
-2.598330999999999975e-05
-8.237949999999999960e-05
-1.436350000000000029e-04
-1.387419999999999940e-04
-1.096813000000000031e-04
-7.964933000000000538e-05
-1.023596999999999951e-04
-1.453040999999999968e-04
-1.240715999999999998e-04
-8.428326999999999781e-05
-1.031851000000000025e-04
-1.006069000000000006e-04
-1.249440999999999952e-04
-6.895946999999999385e-05
-1.114344999999999984e-04
-1.050161000000000058e-04
-1.035129999999999964e-04
-1.081212000000000042e-04
-7.453685999999999840e-05
-8.609825000000000529e-05
-9.093095999999999785e-05
-7.637691999999999854e-05
-3.447524000000000096e-05
-6.312059999999999329e-05
-9.296693000000000133e-05
-3.921357999999999870e-05
-7.091926999999999498e-05
-5.132383000000000019e-05
-7.677653999999999523e-05
-2.982457000000000031e-05
-3.416207000000000071e-05
-8.173984000000000241e-05
-3.850953000000000329e-05
-4.709114999999999720e-05
-4.699440999999999921e-05
-5.955781000000000161e-05
-4.659844000000000036e-05
-2.176967000000000057e-05
-2.602937999999999879e-06
9.220069000000000238e-06
-3.061064999999999889e-06
-4.206939000000000007e-05
-8.034523999999999377e-05
-6.630348999999999900e-05
-1.625438000000000005e-05
6.542375000000000190e-06
-2.222254999999999952e-05
-3.011859999999999993e-05
-6.983963000000000001e-06
-6.298884000000000355e-06
-4.954507999999999964e-05
-2.176516000000000017e-05
1.407614000000000005e-05
-1.988394000000000058e-05
1.562468000000000166e-05
-5.114855000000000176e-06
6.351936000000000267e-06
4.847584999999999768e-05
1.064340000000000045e-05
2.522361000000000176e-06
-2.765023000000000039e-05
-1.274277999999999965e-05
1.013922999999999940e-06
2.282755000000000136e-05
2.999031000000000052e-05
8.516301999999999900e-05
8.316356000000000171e-05
6.576096000000000675e-05
1.011947000000000020e-04
1.075601999999999938e-04
9.213767999999999568e-05
1.188124999999999945e-04
1.271927000000000062e-04
1.117281999999999987e-04
1.002563000000000044e-04
8.664323999999999344e-05
1.412313999999999909e-04
1.234701999999999957e-04
7.602136999999999480e-05
1.126301000000000044e-04
1.257138000000000092e-04
6.860041000000000207e-05
1.190232000000000025e-04
1.447869000000000011e-04
8.850646000000000099e-05
9.199766999999999971e-05
1.002350000000000051e-04
6.133025000000000119e-05
2.989268999999999856e-05
1.052943000000000059e-04
8.141962000000000364e-05
6.969248000000000261e-05
8.770957999999999652e-05
3.761320000000000098e-05
1.717131000000000009e-05
3.816963999999999730e-05
4.469368000000000066e-05
6.242746999999999608e-05
2.459270999999999988e-05
4.492677999999999678e-05
3.551241999999999702e-05
1.832952999999999999e-05
1.997976999999999929e-05
-5.786171999999999834e-06
1.377529000000000106e-06
4.599404000000000323e-05
1.987382000000000075e-05
3.683686999999999753e-05
1.056070000000000038e-05
-5.983153999999999738e-06
5.114073000000000189e-06
1.851269999999999980e-05
6.606340000000000008e-06
2.137030000000000104e-05
-3.211582999999999707e-05
-2.495390999999999907e-05
-1.931559000000000203e-06
4.902640999999999941e-06
2.588351000000000199e-06
1.321842000000000007e-05
1.856189999999999926e-05
-4.204782000000000224e-05
-4.467744000000000300e-05
1.288022000000000049e-05
2.441942000000000006e-05
2.519340000000000006e-06
6.826411000000000497e-07
3.742645000000000146e-05
-1.625088999999999985e-05
1.026582000000000059e-05
1.553454000000000119e-05
-2.002946999999999985e-05
-1.186706999999999987e-05
-1.632115999999999943e-05
2.170065000000000034e-05
2.055728999999999982e-05
-6.091688999999999877e-05
-3.318177999999999997e-05
-2.643255000000000157e-05
-1.058013999999999998e-05
-2.302060000000000114e-05
8.305923000000000808e-06
-1.134502999999999936e-05
-4.702992000000000321e-05
-3.253273999999999711e-05
-2.384579000000000061e-05
1.631068999999999884e-05
1.046798999999999970e-05
-2.668422999999999981e-05
-1.793153999999999874e-05
-3.994478000000000281e-05
-1.399693000000000017e-05
9.442979999999999500e-06
-1.965914999999999964e-05
-2.087732999999999955e-05
-4.306957999999999701e-05
-3.159981000000000264e-05
-2.375589999999999900e-06
-2.844012000000000037e-05
-5.821432999999999800e-05
-2.814232000000000129e-05
-1.766190999999999841e-05
7.392739000000000405e-06
5.071635000000000402e-07
-2.720681999999999983e-05
-4.022996999999999728e-05
-2.404738000000000150e-05
-1.373981999999999985e-05
-3.753679000000000217e-05
-1.939710000000000102e-05
-6.962095999999999690e-06
-2.795299000000000086e-05
-3.225175999999999900e-05
-5.225943999999999918e-05
-2.406026999999999859e-05
-7.328989000000000380e-05
-7.643539999999999666e-05
-4.962088999999999714e-05
-8.506416999999999570e-05
-1.348150999999999961e-04
-7.704341000000000238e-05
-1.110977000000000053e-04
-1.579033000000000032e-04
-1.499410000000000066e-04
-7.352364999999999866e-05
-7.106757000000000167e-05
-7.705815000000000353e-05
-3.506772999999999840e-05
-2.582431000000000009e-05
-3.422429000000000297e-05
-4.840843999999999827e-06
5.837384000000000285e-05
3.648758999999999873e-05
5.632051999999999859e-05
8.625782000000000078e-05
7.777999000000000338e-05
4.464385999999999848e-05
4.740632000000000185e-05
4.971801000000000139e-05
3.841111999999999690e-05
5.873909000000000075e-05
4.159859999999999844e-05
6.410460999999999677e-05
4.548575000000000068e-05
8.808556000000000643e-05
2.018434999999999929e-05
4.889499999999999858e-05
4.628791000000000182e-05
-1.881924999999999985e-06
1.120905000000000070e-05
7.849405000000000108e-06
-7.396221999999999775e-06
-4.999005999999999822e-05
-9.608736000000000154e-05
-4.710001000000000037e-05
-7.001271000000000209e-05
-1.178879999999999934e-04
-2.178337999999999878e-04
-2.476304999999999934e-04
-8.793004999999999680e-05
1.686980000000000033e-04
3.383262000000000270e-04
3.581580000000000224e-04
3.386306000000000168e-04
3.246546999999999801e-04
3.108149000000000046e-04
2.617534000000000137e-04
1.329357000000000086e-04
3.301551999999999726e-05
-2.652793999999999999e-05
-4.331725000000000272e-05
-4.449901999999999666e-05
-1.434353999999999989e-04
-1.190224000000000007e-04
-8.211123000000000293e-05
-7.990639000000000389e-05
-1.257738000000000053e-04
-1.291885000000000049e-04
-9.736083999999999396e-05
-6.865891000000000160e-05
-1.047671000000000019e-04
-1.206918999999999955e-04
-1.098212000000000049e-04
-9.196645999999999836e-05
-7.467876000000000462e-05
-3.505648999999999815e-05
-1.472942000000000034e-04
-8.704709000000000144e-05
-8.083044000000000058e-05
-9.568584999999999461e-05
-6.418120000000000140e-05
-1.076250000000000004e-04
-7.418832999999999786e-05
-5.225130999999999965e-05
-6.510545999999999922e-05
-6.192853000000000387e-05
-5.469731000000000300e-05
-9.177432000000000124e-05
-6.360767999999999609e-05
-4.931430999999999711e-05
-2.946505000000000006e-06
-2.155338999999999863e-05
-1.195082999999999955e-05
-5.583678999999999975e-05
-5.065042000000000014e-05
-6.514646999999999495e-05
-3.560571999999999831e-05
-3.747402000000000209e-05
-1.036712999999999979e-05
-2.840673999999999969e-05
-3.271912999999999856e-05
-3.928709999999999863e-05
-3.340111000000000181e-05
-3.255097999999999916e-05
-2.400898999999999931e-05
-1.911857000000000150e-05
-2.056566999999999990e-05
-4.261592000000000109e-05
-3.701413999999999795e-05
-3.337606999999999841e-05
-3.531693000000000018e-06
-3.928843999999999750e-05
-3.667800999999999749e-05
-5.372356000000000067e-06
-2.175649000000000013e-05
-5.082554999999999655e-06
2.304004999999999974e-05
9.469055000000000771e-06
1.358395000000000061e-05
4.855808999999999776e-06
-1.227760000000000083e-05
4.729502000000000174e-05
1.369748999999999987e-05
2.726157000000000130e-05
4.593496999999999771e-05
5.285695000000000221e-05
6.775522000000000619e-05
9.184583000000000287e-05
8.266548000000000190e-05
9.861170000000000319e-05
1.123238999999999970e-04
1.040170999999999972e-04
9.820098000000000249e-05
1.233100999999999902e-04
1.182165999999999957e-04
1.334347000000000050e-04
1.446169999999999877e-04
6.866090000000000528e-05
1.075080999999999948e-04
1.136793999999999945e-04
1.028391999999999962e-04
1.288150000000000059e-04
1.108828999999999951e-04
6.319398000000000376e-05
9.452809000000000656e-05
9.692989000000000108e-05
9.273724999999999373e-05
7.201211999999999587e-05
7.211283999999999446e-05
7.810896000000000440e-05
6.725314999999999831e-05
5.856337000000000033e-05
7.437967999999999392e-05
3.429715999999999809e-05
3.537435000000000124e-05
2.271146000000000159e-05
2.964146999999999862e-05
5.242192000000000173e-05
2.753924999999999895e-05
-7.817590999999999874e-06
2.888428999999999988e-05
2.074470999999999878e-05
3.416830000000000285e-05
5.371085999999999824e-05
2.582717000000000026e-05
-4.356686999999999789e-07
-2.268812999999999922e-06
1.971784999999999960e-05
2.289692999999999882e-06
-1.727971000000000062e-05
2.037131999999999980e-06
1.881000999999999848e-05
2.224658000000000004e-05
8.139495999999999632e-06
2.863038999999999881e-05
-1.696025000000000080e-05
1.253092000000000030e-05
-1.689845000000000081e-05
7.090643999999999869e-06
-7.860060999999999486e-06
-3.415446999999999759e-05
-1.341876000000000092e-09
8.943689999999999746e-06
-1.039743000000000016e-05
3.654094000000000136e-06
7.264743999999999609e-06
-1.950802000000000165e-05
2.001714999999999858e-05
6.630223000000000488e-07
-1.066788000000000026e-05
-8.794625999999999914e-06
5.072031999999999925e-06
1.625582999999999984e-05
-4.685517000000000290e-05
5.425215999999999761e-06
1.239006999999999977e-05
1.522967000000000008e-06
1.333197000000000002e-05
-1.163482999999999953e-05
-1.507442000000000059e-05
-2.757546999999999841e-05
-2.762917999999999912e-06
8.731064999999999389e-06
-3.030331000000000032e-07
-1.868552000000000063e-05
-3.010376999999999926e-05
-1.322215000000000011e-05
-2.925570999999999912e-05
-1.709665999999999904e-05
-1.626713000000000090e-05
-1.607225000000000100e-06
-5.172194999999999867e-06
-5.604712000000000219e-05
-3.236308000000000050e-05
1.204853000000000033e-05
-3.495534000000000336e-05
-2.469360000000000020e-05
1.445838999999999965e-05
-1.231751999999999993e-05
-1.793986999999999871e-05
-5.354035999999999707e-05
-1.406215000000000054e-05
-2.873079999999999943e-05
-2.902030000000000064e-05
-1.754408999999999960e-05
-2.488279000000000101e-05
-3.547128999999999967e-05
-4.292505999999999725e-05
-8.934562999999999587e-06
-9.550273000000001016e-07
-2.147101999999999962e-05
-2.165629000000000065e-05
-2.564776999999999991e-05
-4.275788999999999865e-05
-3.411320999999999792e-05
-2.428833000000000128e-05
-3.358795000000000001e-07
-2.480158999999999915e-05
-1.867562999999999995e-05
-4.536285000000000225e-05
-4.590421000000000074e-05
-4.691321999999999805e-05
-4.670232000000000316e-05
-6.916821000000000026e-05
-5.414451999999999774e-05
-6.466661999999999649e-05
-7.144251999999999374e-05
-5.396310999999999908e-05
-9.030423999999999786e-05
-1.205676999999999942e-04
-1.142768000000000034e-04
-1.189901999999999979e-04
-1.046282000000000023e-04
-1.014983999999999971e-04
-1.027533000000000043e-04
-6.321703000000000348e-05
-4.185535000000000237e-05
5.117979000000000224e-07
1.048251999999999972e-05
2.706267999999999955e-05
4.662955000000000149e-05
3.938432999999999702e-05
7.136677999999999436e-05
6.637262999999999746e-05
6.582136000000000367e-05
2.714858000000000156e-05
7.146472000000000176e-05
9.786780000000000512e-05
6.524875999999999495e-05
6.735298000000000240e-05
8.522242999999999442e-05
4.550553000000000204e-05
5.522374000000000060e-05
5.912012999999999871e-05
4.140956000000000134e-05
1.937450999999999960e-05
2.880982999999999857e-05
3.094070000000000007e-05
3.082617999999999833e-05
2.262970000000000121e-05
-1.157835999999999971e-05
-4.523598999999999784e-05
-5.042963999999999851e-05
-8.477933000000000539e-05
-1.209061000000000044e-04
-1.025206000000000023e-04
-2.256519000000000070e-04
-2.705661999999999846e-04
-1.487415999999999923e-04
1.210200000000000034e-04
3.761435000000000147e-04
4.050174999999999826e-04
4.158850000000000068e-04
3.800779000000000223e-04
3.159888999999999927e-04
2.765530000000000202e-04
1.775919999999999897e-04
2.867401000000000094e-05
-6.937960000000000231e-05
-3.595112999999999743e-05
-2.909001999999999901e-05
-9.838139000000000573e-05
-1.409798000000000084e-04
-1.171409000000000019e-04
-9.669013999999999376e-05
-1.068381999999999963e-04
-1.427568999999999952e-04
-1.073306999999999988e-04
-7.203243999999999435e-05
-1.084881000000000023e-04
-1.068966999999999959e-04
-1.187175999999999965e-04
-1.006854000000000033e-04
-5.609488000000000256e-05
-8.148358000000000565e-05
-1.001273999999999995e-04
-1.017798000000000043e-04
-9.851841999999999652e-05
-6.507241000000000468e-05
-8.204043999999999746e-05
-8.290110000000000491e-05
-3.412632000000000024e-05
-7.602515000000000173e-05
-7.375274000000000565e-05
-5.329110000000000211e-05
-5.921088999999999850e-05
-4.966208999999999939e-05
-3.548231999999999878e-05
-3.856753000000000172e-05
-6.754738999999999568e-05
-8.545492999999999601e-05
-5.063553000000000205e-05
-4.067429999999999782e-05
-2.908554000000000071e-05
-3.800416000000000173e-05
-2.891375000000000078e-05
-4.042661999999999818e-05
-6.289455999999999638e-05
-2.980113000000000041e-05
-1.243364000000000010e-05
-3.296843999999999703e-05
-7.966493999999999963e-05
-1.207900000000000073e-05
-2.923695000000000135e-05
-2.421017999999999933e-05
-2.004765999999999840e-05
-2.394920000000000103e-05
-7.482549999999999705e-05
-2.426435000000000088e-05
-3.580331999999999791e-05
-1.779868000000000151e-05
-1.171514000000000012e-05
-2.817268000000000078e-05
-4.574496000000000053e-05
-9.154965999999999923e-06
1.541826999999999900e-05
2.607748000000000092e-05
-1.922952000000000084e-05
-6.256080999999999810e-06
-6.391021000000000249e-06
-9.940775000000000551e-07
2.466590000000000045e-05
1.881867000000000078e-06
4.216734000000000140e-05
6.847025000000000398e-05
7.736247000000000132e-05
6.752895000000000674e-05
6.002664000000000166e-05
8.717974999999999824e-05
9.836226999999999633e-05
9.313844000000000539e-05
1.159297000000000024e-04
9.630290999999999645e-05
1.218062999999999996e-04
1.358336000000000135e-04
1.202466999999999951e-04
8.589752000000000357e-05
1.262559999999999919e-04
1.595587999999999943e-04
1.189818000000000066e-04
1.213697999999999980e-04
1.170601999999999944e-04
1.008406999999999983e-04
9.958211000000000395e-05
1.034664000000000026e-04
8.191675000000000475e-05
6.507748999999999413e-05
1.030109000000000000e-04
7.491312000000000079e-05
3.954415999999999715e-05
5.735963000000000091e-05
5.178583999999999748e-05
5.810359999999999711e-05
5.400518000000000121e-05
5.951237000000000091e-05
6.141208999999999362e-05
4.724057000000000093e-05
5.185105999999999954e-05
2.345689000000000167e-05
9.799904999999999475e-06
-3.227368000000000183e-06
2.727463000000000012e-05
5.105695999999999981e-05
3.516254999999999761e-05
8.619122000000000383e-06
1.814539000000000009e-05
2.095476999999999927e-05
2.911689999999999900e-05
2.562677999999999861e-05
1.439239999999999962e-05
9.177437000000000813e-06
3.969803999999999778e-06
-6.530344999999999730e-06
-4.716181000000000374e-06
-4.160432000000000047e-06
-2.155882999999999972e-05
-1.280551000000000032e-05
1.156803999999999945e-05
2.050800000000000084e-05
1.254126000000000027e-05
-9.283980999999999229e-06
-2.358621999999999929e-06
-1.265639000000000064e-05
2.303336000000000185e-06
9.964749000000000366e-06
1.409542000000000031e-05
-5.047029999999999686e-06
4.370565000000000226e-06
6.804007999999999790e-06
3.433522000000000006e-06
-2.868927000000000120e-05
-1.463157999999999926e-05
-7.209648000000000026e-06
-2.073621000000000047e-05
-3.862789000000000261e-05
-2.073225999999999859e-05
-2.923856999999999948e-05
-1.454028000000000065e-05
-6.590020000000000137e-06
-5.381342999999999749e-06
-2.657702999999999853e-05
-2.840013000000000146e-05
4.336172000000000164e-06
-2.032538999999999955e-05
-6.375119999999999366e-05
-4.699794000000000221e-05
-2.107086999999999974e-05
-1.566672999999999899e-05
-3.678735999999999671e-05
1.511224000000000060e-06
-3.338503000000000179e-05
-1.166047999999999987e-05
-1.852971000000000051e-05
-6.736017999999999616e-06
-2.738314000000000156e-05
-2.809077000000000007e-05
-3.748477000000000194e-05
-3.133305000000000318e-05
-4.543266000000000015e-05
-1.439162999999999997e-05
-3.248224000000000158e-05
-2.840192000000000132e-05
-3.246047999999999723e-05
-4.057433999999999818e-05
-4.875598999999999802e-05
-2.572039000000000126e-05
-6.119846000000000258e-06
-3.422509999999999864e-05
-5.005061999999999955e-05
-2.577654999999999972e-05
-3.307407000000000028e-05
-1.656897999999999870e-05
-1.505613000000000013e-05
-2.139025000000000073e-05
-1.946005000000000014e-05
-2.658440999999999981e-05
-1.787846999999999961e-05
-2.656076999999999947e-05
-2.995138999999999853e-05
-4.190399999999999724e-05
-4.227682999999999685e-05
-2.981402000000000089e-05
-2.718717000000000079e-05
-1.999429999999999930e-05
-4.643528999999999837e-06
-4.962494999999999995e-06
-1.836098999999999850e-05
-3.310510000000000259e-05
-1.442820999999999920e-05
-2.824363000000000050e-05
-2.502383000000000127e-05
-9.374555999999999628e-06
4.228132999999999656e-06
-2.963837999999999930e-05
-3.645310999999999902e-05
-4.407447999999999818e-05
-5.046833000000000135e-05
-6.317658999999999341e-05
-5.069424999999999664e-05
-6.056045000000000053e-05
-6.527547999999999391e-05
-7.965271999999999858e-05
-9.101173999999999744e-05
-1.054816999999999967e-04
-1.207263999999999966e-04
-1.114844000000000062e-04
-9.541693999999999382e-05
-6.850298000000000324e-05
-4.222525000000000031e-05
-4.280606000000000059e-05
4.957015000000000345e-06
3.061425999999999986e-05
3.337728999999999990e-06
2.045549000000000022e-05
6.727217000000000071e-05
5.931499000000000314e-05
5.989566000000000042e-05
6.148227999999999777e-05
7.131325000000000370e-05
5.773737999999999912e-05
6.876820000000000339e-05
8.483898000000000405e-05
5.702963000000000238e-05
6.770599000000000463e-05
6.827365999999999372e-05
6.924870000000000667e-05
5.777250000000000294e-05
4.152369000000000291e-05
2.842142000000000003e-05
4.998745999999999929e-05
4.880496000000000172e-05
3.900629999999999956e-05
2.122196999999999902e-05
5.969419999999999676e-06
-4.753284999999999672e-05
-6.296564999999999573e-05
-4.553694999999999775e-05
-6.883052999999999979e-05
-1.271572999999999963e-04
-2.132788999999999952e-04
-2.805656000000000230e-04
-1.462133999999999916e-04
1.722094999999999984e-04
4.148666999999999763e-04
4.295597000000000065e-04
3.869144000000000034e-04
3.733012999999999761e-04
3.164128000000000209e-04
2.761546000000000139e-04
1.828521999999999906e-04
4.461930000000000155e-05
-5.467794999999999714e-05
-5.116783999999999764e-05
-3.116900999999999992e-05
-7.513288000000000562e-05
-1.362931999999999913e-04
-1.099293999999999982e-04
-7.597943000000000177e-05
-8.445776999999999419e-05
-1.265940000000000012e-04
-1.088973000000000051e-04
-8.908519000000000485e-05
-8.523491000000000010e-05
-1.099134999999999972e-04
-1.018687999999999961e-04
-7.388984000000000133e-05
-8.800719999999999995e-05
-7.307663000000000646e-05
-6.895334999999999941e-05
-7.116194000000000328e-05
-6.650682999999999357e-05
-7.539232999999999514e-05
-7.228096000000000531e-05
-6.037825000000000082e-05
-5.789753000000000130e-05
-5.193531999999999863e-05
-5.505260000000000210e-05
-4.809546999999999846e-05
-3.619642999999999998e-05
-4.756264000000000038e-05
-6.022196999999999831e-05
-4.423914999999999808e-05
-3.811397999999999994e-05
-1.879673000000000121e-05
-1.014410000000000000e-05
-1.330473000000000026e-05
-4.123027000000000191e-05
-3.035153000000000110e-05
-3.613026999999999992e-05
-3.124504999999999996e-05
-2.956668999999999864e-05
-1.725549000000000036e-05
-1.902455000000000067e-05
-2.319456000000000040e-05
-2.849725999999999963e-05
-2.334573000000000120e-05
-2.693713999999999939e-05
-2.957979000000000026e-05
-3.625704999999999873e-05
-3.284471000000000151e-05
-2.624418000000000052e-05
-1.533920000000000045e-05
-1.392155000000000057e-05
-1.904346999999999946e-05
-2.727441999999999898e-05
-3.287883000000000315e-05
-3.122293999999999824e-05
-1.761431999999999977e-05
1.706122000000000036e-06
1.078873999999999998e-05
-2.244556999999999947e-06
1.033127000000000010e-05
1.468044999999999935e-05
2.017403999999999972e-05
2.245877000000000046e-05
1.780754999999999860e-05
1.164271999999999921e-05
2.992087999999999871e-05
5.900105000000000323e-05
6.719959000000000555e-05
7.985081000000000535e-05
8.365156000000000111e-05
1.009409999999999946e-04
1.224964999999999951e-04
1.192474999999999997e-04
1.153818999999999938e-04
1.120909999999999946e-04
9.617491000000000039e-05
9.143563999999999858e-05
1.187967999999999940e-04
1.275842999999999975e-04
1.238714000000000080e-04
1.138702000000000063e-04
1.104099000000000015e-04
1.081270999999999968e-04
9.671953000000000332e-05
8.572012999999999475e-05
6.937437000000000237e-05
8.808265999999999329e-05
7.918334000000000071e-05
6.961620999999999326e-05
5.632891999999999668e-05
5.942522000000000293e-05
4.328779000000000182e-05
5.276310000000000310e-05
4.082035999999999689e-05
2.911482999999999988e-05
3.129798999999999678e-05
2.083314999999999890e-05
2.564952000000000036e-05
2.584451000000000033e-05
3.021951000000000164e-05
2.243966999999999924e-05
1.468211000000000028e-05
4.566136999999999749e-06
-1.066730999999999935e-05
-7.614973999999999642e-06
3.228804000000000012e-06
-2.752023000000000078e-06
-1.700582000000000001e-06
-4.884546000000000413e-06
-1.221350999999999989e-05
-1.073998000000000080e-05
-3.688055999999999947e-06
3.690103000000000230e-07
-1.424660000000000011e-05
-3.420033000000000057e-05
-2.828449999999999999e-05
-7.444727999999999985e-06
-1.524589000000000016e-05
-1.603737999999999857e-05
-1.065905999999999989e-05
-1.644222999999999860e-05
-1.965694000000000089e-05
-6.791228999999999620e-06
-1.694312999999999917e-05
-1.526033999999999965e-05
-1.069169000000000063e-05
-7.570339999999999588e-06
-6.200278000000000405e-06
-1.145523999999999944e-05
-3.001429000000000092e-05
-3.377443000000000182e-05
-1.127359999999999994e-05
-3.014227999999999968e-05
-3.400517000000000226e-05
-8.446245999999999702e-06
-6.684417999999999975e-06
-1.493253000000000016e-05
-2.651552999999999921e-05
-1.848303999999999846e-05
-5.931615999999999690e-06
-2.048594999999999992e-05
-3.477011000000000005e-06
-1.229024000000000076e-05
-1.709534999999999888e-05
-2.131436999999999834e-05
-2.778528999999999906e-05
-1.716085000000000020e-05
-2.011551999999999880e-05
-2.853821999999999864e-05
-3.905808000000000332e-05
-2.887656999999999854e-05
-2.412001000000000016e-05
-1.800331000000000162e-05
-2.646190999999999886e-05
-1.360754999999999985e-05
-2.508258000000000135e-05
-2.798296000000000016e-05
-2.726776000000000064e-05
-3.041356000000000024e-05
-2.378710000000000134e-05
-1.104764999999999916e-05
-7.365242000000000116e-06
-2.198880999999999929e-05
-2.530281999999999909e-05
-2.371948000000000079e-05
-3.032011999999999931e-05
-2.341673000000000102e-05
-3.826487999999999878e-05
-2.830563000000000092e-05
-1.631263999999999972e-05
-1.766326000000000137e-05
-2.319414000000000152e-05
-4.134182999999999988e-05
-4.374885000000000042e-05
-3.412139000000000095e-05
-1.607166000000000123e-05
-1.609398000000000070e-05
-3.115043000000000120e-05
-3.587569999999999941e-05
-3.329387000000000112e-05
-2.125276000000000148e-05
-1.033091999999999934e-05
-2.189595000000000167e-05
-2.999057999999999908e-05
-6.515392000000000113e-05
-7.778755000000000370e-05
-6.470281999999999455e-05
-7.644273999999999514e-05
-7.903224000000000143e-05
-9.300955000000000127e-05
-1.133502000000000045e-04
-1.128215999999999974e-04
-1.145937999999999937e-04
-1.216432000000000011e-04
-1.056831000000000046e-04
-7.634922999999999948e-05
-5.979196999999999735e-05
-5.360341000000000319e-05
-2.102932000000000011e-05
6.963768000000000104e-06
1.409051999999999973e-05
2.426561000000000093e-05
4.822701999999999892e-05
5.414035999999999811e-05
7.057817999999999991e-05
7.829194999999999839e-05
7.903513000000000031e-05
6.665216999999999648e-05
7.545990000000000575e-05
7.951404000000000078e-05
7.877505999999999452e-05
5.972305000000000072e-05
4.929026000000000197e-05
4.518356000000000282e-05
5.953581000000000080e-05
5.889886999999999738e-05
4.668310000000000032e-05
4.058003999999999713e-05
2.206832999999999882e-05
1.687986000000000139e-05
-3.331604999999999928e-06
-1.842782999999999870e-05
-5.587811999999999754e-05
-4.045427000000000121e-05
-9.059792000000000688e-06
-6.155975999999999690e-05
-1.546930999999999979e-04
-2.358683999999999998e-04
-2.217646999999999945e-04
1.146099999999999920e-05
2.270983999999999872e-04
3.569574999999999853e-04
3.395973999999999954e-04
3.409657999999999873e-04
3.101700000000000203e-04
2.952321000000000155e-04
2.259707000000000013e-04
1.122645000000000023e-04
2.388406999999999848e-05
-1.635827000000000017e-05
-2.841902999999999885e-05
-6.825386000000000452e-05
-1.122765999999999950e-04
-1.179643999999999983e-04
-9.279726000000000402e-05
-1.061422000000000017e-04
-1.082382999999999967e-04
-1.167812999999999995e-04
-1.166661000000000043e-04
-8.933099000000000172e-05
-1.040931999999999947e-04
-1.195387999999999946e-04
-9.177904999999999332e-05
-8.707030999999999950e-05
-8.252871000000000219e-05
-8.749078000000000464e-05
-9.055420000000000114e-05
-8.763262999999999381e-05
-9.140750999999999586e-05
-8.924847000000000238e-05
-6.800248999999999747e-05
-4.047561999999999720e-05
-5.478182999999999995e-05
-5.695794000000000171e-05
-5.290113999999999678e-05
-4.357924000000000053e-05
-3.941960999999999848e-05
-4.035435999999999830e-05
-2.520953999999999920e-05
-2.652276000000000015e-05
-3.457156999999999738e-05
-4.149357000000000327e-05
-3.979852000000000330e-05
-4.914530999999999923e-05
-4.223395999999999975e-05
-2.530401000000000102e-05
-2.141399000000000129e-05
-2.719230000000000052e-05
-3.063224999999999797e-05
-2.708291999999999921e-05
-2.665034000000000071e-05
-2.824382000000000024e-05
-2.517330999999999904e-05
-1.289366000000000049e-05
-1.487236999999999971e-05
-1.886711999999999903e-05
-3.298747000000000013e-05
-1.525941999999999967e-05
-1.831013000000000150e-05
-9.122080000000000591e-06
-1.083677000000000060e-05
-3.651293000000000110e-06
3.318613000000000019e-06
-1.444864999999999930e-05
-9.460570000000000123e-06
4.458227999999999864e-06
6.573120000000000350e-06
1.614788000000000031e-05
2.172537999999999900e-05
3.810917000000000057e-07
3.065260999999999924e-05
4.523883000000000000e-05
3.353512999999999888e-05
3.182933999999999975e-05
4.842574000000000233e-05
5.861180000000000014e-05
7.213746999999999629e-05
8.007330999999999856e-05
9.147168999999999970e-05
1.077560000000000030e-04
1.100418000000000007e-04
1.037291000000000027e-04
9.957639999999999753e-05
1.000126999999999988e-04
1.074493000000000014e-04
1.218602999999999961e-04
1.064613000000000034e-04
1.171562999999999950e-04
1.092677000000000042e-04
9.906867000000000028e-05
1.103760999999999951e-04
1.355449999999999906e-04
1.200459000000000020e-04
1.191160000000000027e-04
1.193648999999999996e-04
9.394188999999999513e-05
5.854694999999999686e-05
6.983811999999999941e-05
8.213716000000000083e-05
7.026795999999999596e-05
6.844940999999999623e-05
5.177213000000000062e-05
4.207815999999999694e-05
4.396377999999999940e-05
4.405567999999999762e-05
5.101668000000000094e-05
5.035481000000000180e-05
3.862118000000000078e-05
2.133067000000000020e-05
3.025263000000000108e-05
3.229019999999999791e-05
3.064021999999999986e-05
1.091714000000000031e-05
2.510276000000000104e-06
4.222041000000000053e-06
8.456106999999999369e-06
3.120946999999999869e-06
1.668457000000000075e-05
-6.519656000000000077e-06
-2.494709000000000055e-06
-7.829383000000000116e-06
4.623165000000000145e-06
1.367023000000000051e-07
2.976047000000000206e-06
-6.941040999999999771e-06
-1.824148000000000005e-05
-1.291926000000000072e-05
3.258149000000000173e-07
4.758051000000000365e-06
6.705039000000000196e-06
-5.180088000000000268e-06
-1.602361000000000090e-05
-1.036976999999999982e-05
-1.167453000000000018e-05
-5.651012000000000098e-06
3.711134000000000017e-06
1.223250000000000020e-05
6.645083999999999683e-06
2.067815999999999939e-06
-6.509008000000000073e-06
-1.960716000000000151e-05
-1.727729000000000073e-05
-1.864488000000000029e-05
-1.987812000000000002e-05
-3.292149999999999896e-06
-2.256172000000000173e-06
1.664157999999999865e-05
1.959398000000000192e-06
-1.460278999999999949e-05
-2.996323000000000009e-05
-2.495773999999999934e-05
-7.340065000000000340e-06
-7.632502000000000671e-06
-2.244710000000000062e-05
-1.963206999999999921e-05
-1.471856000000000058e-05
-2.799531000000000014e-05
-2.724671999999999923e-05
-2.807002999999999931e-05
-3.410418999999999712e-05
-1.421018999999999921e-05
-8.176626999999999463e-06
-1.145649000000000049e-05
-1.474283999999999995e-05
-1.826673000000000120e-05
-2.201023000000000018e-05
-1.660763999999999944e-05
-1.053121999999999977e-05
-2.321566999999999994e-05
-2.113593000000000077e-05
-2.378694000000000031e-05
-2.571481000000000054e-05
-1.729943999999999848e-05
-2.387907000000000107e-05
-2.281071999999999969e-05
-5.336605000000000213e-06
-5.190581999999999832e-06
-1.861375999999999846e-05
-2.418789999999999927e-05
-5.501002999999999888e-05
-4.242179000000000029e-05
-3.700240999999999730e-05
-2.056627999999999852e-05
-2.250218000000000145e-05
-2.099602999999999894e-05
-2.783647999999999881e-05
-3.069467000000000067e-05
-2.575469999999999924e-05
-2.969871000000000148e-05
-3.392182999999999977e-05
-1.749368000000000019e-05
-1.463114999999999967e-05
-1.848347000000000144e-05
-2.187085000000000084e-05
-4.164719000000000266e-05
-4.662930999999999825e-05
-5.154951999999999972e-05
-6.033071000000000229e-05
-6.769446999999999834e-05
-7.395404000000000658e-05
-8.212211000000000510e-05
-8.809667999999999828e-05
-9.788247000000000137e-05
-1.128440000000000058e-04
-1.330810000000000087e-04
-1.248512000000000016e-04
-9.497560000000000594e-05
-7.302936999999999363e-05
-4.630215000000000188e-05
-2.554493999999999941e-05
-1.128828999999999929e-05
1.456440999999999969e-05
3.079308000000000029e-05
3.334976000000000102e-05
4.296751999999999955e-05
5.508808999999999792e-05
7.616875000000000490e-05
6.575773999999999834e-05
8.334864999999999353e-05
7.805261000000000620e-05
7.042837999999999670e-05
6.217193999999999618e-05
6.232560999999999906e-05
5.292913999999999719e-05
5.656594000000000276e-05
6.939720000000000025e-05
5.977388999999999972e-05
3.918002000000000236e-05
2.172808999999999884e-05
3.010138999999999878e-05
3.136929999999999797e-05
2.284489000000000143e-05
1.138461000000000009e-05
-3.846053999999999819e-05
-6.961199999999999690e-05
-6.170032000000000424e-05
-7.010634999999999328e-05
-1.244914000000000122e-04
-2.009737999999999900e-04
-2.820271999999999753e-04
-1.732264999999999922e-04
1.012019999999999977e-04
3.349183000000000151e-04
4.260774999999999741e-04
4.147868999999999775e-04
3.778960000000000153e-04
3.326056999999999994e-04
2.922313999999999749e-04
1.781944000000000095e-04
7.848716999999999413e-05
-1.577773999999999914e-05
-4.167496000000000053e-05
-4.782414999999999849e-05
-8.471608999999999954e-05
-1.368963000000000059e-04
-1.267876999999999991e-04
-9.562913999999999833e-05
-8.814306000000000376e-05
-1.231791999999999946e-04
-1.248208999999999961e-04
-9.919832000000000335e-05
-9.243435000000000041e-05
-9.884392999999999944e-05
-1.072810999999999985e-04
-1.085195000000000034e-04
-1.055149999999999952e-04
-9.273608999999999390e-05
-8.564425999999999983e-05
-7.257072000000000099e-05
-6.515103000000000224e-05
-7.572112999999999782e-05
-9.377952999999999420e-05
-6.120214999999999813e-05
-6.013560000000000070e-05
-8.601089000000000618e-05
-6.349602000000000468e-05
-5.418334999999999683e-05
-7.069709999999999775e-05
-6.146791999999999610e-05
-5.246599000000000146e-05
-5.105923000000000276e-05
-4.516164000000000083e-05
-4.640634999999999997e-05
-6.506345000000000130e-05
-6.071646999999999841e-05
-4.756755999999999897e-05
-4.440795000000000229e-05
-3.173668000000000257e-05
-2.764875999999999920e-05
-4.551684000000000041e-05
-3.162338999999999878e-05
-2.713968999999999968e-05
-5.230125999999999737e-05
-5.232817000000000284e-05
-3.919554999999999779e-05
-2.848107999999999939e-05
-3.178227000000000021e-05
-2.025913999999999997e-05
-3.814512999999999709e-05
-3.572616000000000084e-05
-3.253999000000000285e-05
-4.314693000000000060e-05
-3.290777000000000155e-05
-1.978020000000000079e-05
-2.682378000000000087e-05
-3.155402999999999848e-05
-1.862278999999999996e-05
-1.385999999999999944e-05
3.267061000000000008e-06
2.777269999999999923e-05
9.032779000000000207e-06
3.866882000000000122e-06
8.918485999999999436e-06
1.589537000000000160e-05
2.163668000000000102e-05
4.256810999999999722e-05
5.327956000000000120e-05
6.955319000000000280e-05
7.850125000000000332e-05
8.142834000000000378e-05
9.150537999999999836e-05
1.179292000000000025e-04
1.207780999999999948e-04
1.043177000000000058e-04
9.808706000000000206e-05
1.012393000000000049e-04
1.102867999999999958e-04
1.089957000000000041e-04
1.103324999999999944e-04
1.241092000000000009e-04
1.073964999999999940e-04
1.054985000000000064e-04
1.266754000000000035e-04
1.132485999999999985e-04
8.251052000000000364e-05
9.274884000000000492e-05
1.004117000000000063e-04
8.570648000000000209e-05
8.444567000000000154e-05
7.984269999999999367e-05
6.427542000000000606e-05
4.859020000000000109e-05
4.736504000000000078e-05
5.002265000000000124e-05
6.102648000000000122e-05
5.805771999999999951e-05
5.346514000000000019e-05
4.433560999999999682e-05
3.899728999999999945e-05
3.534771000000000110e-05
2.047145999999999932e-05
2.414996999999999877e-05
7.443618999999999654e-06
2.630486000000000009e-05
1.803740000000000115e-05
4.413479000000000235e-06
-6.500194000000000296e-06
-1.599659000000000129e-05
-1.269625999999999963e-05
7.023923999999999600e-06
1.266939000000000034e-05
6.987854999999999861e-06
-3.001249999999999852e-06
9.128113999999999862e-06
-7.388125999999999912e-06
-1.250947999999999970e-05
1.209801000000000074e-05
1.848099999999999932e-06
-7.182667999999999820e-06
-7.896518000000000618e-06
-8.533943000000000702e-06
-6.807792000000000057e-06
1.101888999999999980e-05
1.433342000000000040e-05
6.117574999999999615e-06
1.891837000000000002e-06
3.375369999999999923e-06
3.833945999999999833e-06
-1.389527999999999921e-05
-1.355852000000000042e-05
-6.469223000000000250e-06
1.502862000000000107e-07
4.180112999999999733e-06
5.445619999999999710e-06
-8.329793999999999686e-06
-7.658880000000000776e-06
2.369085000000000120e-06
4.684644000000000374e-06
-9.621223000000000734e-07
-1.499296999999999987e-05
-2.205321999999999889e-05
-1.275376000000000035e-05
-3.085635000000000146e-05
-2.182683000000000122e-05
-2.807560000000000187e-06
-4.568471000000000225e-06
-6.115397000000000057e-06
-9.070935000000000592e-06
-2.130046000000000104e-05
-2.683158000000000103e-05
-1.158087000000000081e-05
1.007192000000000010e-07
-8.536609000000000178e-06
-1.515119999999999988e-05
-3.082098000000000048e-05
-3.485733999999999854e-05
-3.357081000000000122e-05
-2.096079000000000028e-05
-1.578659000000000160e-05
-1.272395999999999938e-05
-2.227168000000000087e-05
-9.635239999999999926e-06
-1.568648999999999895e-05
-1.828922999999999972e-06
-1.503470000000000023e-05
-3.177321999999999731e-05
-3.590458000000000039e-05
-1.585517999999999886e-05
-1.546438999999999984e-05
-1.366440999999999984e-05
-1.398834000000000065e-05
-3.123862999999999808e-05
-3.497431000000000227e-05
-2.631051999999999962e-05
-2.196719999999999866e-05
-3.611715999999999760e-05
-3.436895999999999967e-05
-3.124947999999999816e-05
-3.893451999999999937e-05
-3.103606000000000317e-05
-9.011012000000000115e-06
-2.332050000000000144e-05
-2.446151000000000019e-05
-3.891720000000000070e-05
-4.239967999999999857e-05
-2.254099999999999984e-05
-2.008346999999999967e-05
-8.795423000000000103e-06
-1.390031000000000041e-05
-3.690627000000000062e-05
-2.875800000000000147e-05
-1.018198000000000039e-05
-1.016973000000000063e-05
-1.194007999999999970e-05
-1.132986000000000031e-05
-8.378186000000000560e-06
-1.679084000000000135e-05
-1.463920000000000038e-05
-1.519126000000000031e-05
-2.598831000000000055e-05
-1.704093000000000017e-05
-1.084130000000000071e-05
-3.391516000000000073e-05
-6.048242999999999751e-05
-6.436332000000000229e-05
-6.395946999999999429e-05
-7.393595000000000147e-05
-7.236924000000000102e-05
-9.042329000000000480e-05
-8.790074999999999354e-05
-8.056627000000000612e-05
-8.828530999999999380e-05
-1.009812999999999949e-04
-9.796301999999999842e-05
-7.019649999999999783e-05
-5.943820999999999686e-05
-3.041231000000000088e-05
6.957389000000000414e-06
1.270722000000000062e-05
3.018691000000000131e-05
6.159864999999999341e-05
5.458297000000000029e-05
5.745831999999999979e-05
8.139956999999999694e-05
8.581460000000000336e-05
7.568805000000000118e-05
6.592416999999999938e-05
7.424191000000000557e-05
8.935464000000000275e-05
8.239121000000000563e-05
9.700927999999999830e-05
8.290227000000000544e-05
6.113176999999999424e-05
4.757150999999999746e-05
3.300049000000000293e-05
3.951106999999999981e-05
3.477385999999999981e-05
3.951439000000000167e-05
5.712853000000000240e-05
3.262679999999999736e-05
-1.010391999999999965e-05
-5.665988000000000139e-05
-5.875966000000000316e-05
-5.383834999999999928e-05
-8.099035000000000630e-05
-1.499081000000000090e-04
-2.345484000000000056e-04
-2.707200000000000101e-04
-6.818860999999999358e-05
2.355896000000000119e-04
3.934591000000000087e-04
4.071608999999999797e-04
4.267871000000000121e-04
3.797750999999999818e-04
3.280787000000000070e-04
2.590687999999999954e-04
1.496543000000000081e-04
4.466737000000000328e-05
-1.733857999999999892e-05
-1.811591999999999849e-05
-4.353925000000000162e-05
-8.794337999999999418e-05
-1.137712000000000060e-04
-7.911327000000000496e-05
-8.441385999999999887e-05
-8.933180000000000417e-05
-1.079575999999999979e-04
-9.346561000000000246e-05
-7.120081999999999908e-05
-9.058855000000000531e-05
-1.006145999999999972e-04
-8.981574000000000415e-05
-7.308742000000000233e-05
-9.237014999999999516e-05
-1.053431000000000045e-04
-9.208776000000000006e-05
-6.793586999999999911e-05
-6.495766000000000040e-05
-7.909604000000000580e-05
-7.759452999999999923e-05
-7.053472999999999612e-05
-7.072438999999999592e-05
-6.950384999999999354e-05
-5.977835000000000001e-05
-5.001674000000000115e-05
-3.772137999999999967e-05
-3.125760999999999769e-05
-4.036085999999999900e-05
-5.707790999999999847e-05
-3.858879999999999889e-05
-5.775368000000000098e-05
-5.600823999999999961e-05
-4.497395000000000331e-05
-6.827438000000000343e-05
-5.372267999999999841e-05
-3.124296000000000283e-05
-4.872317999999999994e-05
-5.049386999999999908e-05
-4.794879999999999737e-05
-4.409762999999999812e-05
-3.522999999999999981e-05
-2.844766999999999999e-05
-3.594010999999999902e-05
-3.853810999999999684e-05
-3.966236999999999953e-05
-3.845172999999999853e-05
-3.907803999999999694e-05
-4.076106000000000239e-05
-5.494841999999999863e-05
-5.480513999999999753e-05
-5.112252999999999925e-05
-2.762357999999999955e-05
-2.164463000000000151e-05
-1.742981999999999840e-05
-2.212504999999999919e-05
-5.162215999999999908e-06
3.672350999999999900e-06
4.015582000000000071e-06
8.058543999999999530e-06
1.152660999999999974e-05
2.275235999999999979e-06
4.251590000000000234e-06
1.886724000000000064e-05
2.859779999999999918e-05
3.912774999999999820e-05
4.254718999999999743e-05
6.484162000000000075e-05
7.707562000000000592e-05
9.007950999999999773e-05
1.010531999999999967e-04
1.034749000000000009e-04
9.246422000000000289e-05
9.470575999999999431e-05
9.968186000000000245e-05
9.793659000000000620e-05
9.498948000000000114e-05
1.024199999999999986e-04
1.050046000000000009e-04
9.177890999999999708e-05
9.997531999999999947e-05
1.079426999999999991e-04
1.112393999999999975e-04
1.036258999999999932e-04
8.410485999999999895e-05
7.818590999999999356e-05
6.680942000000000586e-05
7.840720999999999769e-05
7.890812000000000574e-05
4.834103999999999956e-05
3.972837000000000194e-05
1.919238999999999871e-05
2.219831000000000126e-05
3.051964000000000109e-05
4.363133999999999958e-05
4.604627999999999852e-05
2.551373000000000144e-05
2.492725000000000092e-05
2.722417000000000061e-05
1.950288999999999853e-05
1.938961999999999953e-05
7.917658999999999946e-06
6.261682999999999862e-06
1.468692000000000007e-06
-1.133877000000000062e-06
1.239323000000000060e-05
2.907954000000000111e-05
1.408268999999999916e-05
-1.298881999999999976e-05
-1.967947999999999882e-05
-2.226352999999999994e-05
-3.065787000000000129e-05
-8.403756999999999777e-06
2.112270000000000107e-06
-4.139084000000000299e-06
-1.036537000000000034e-05
-5.068856000000000347e-06
-2.918951999999999865e-06
-2.143685999999999858e-05
-2.547356000000000010e-05
-1.308059000000000074e-05
-5.321167999999999940e-06
-3.507434999999999987e-06
-3.569586999999999947e-06
-1.331299000000000042e-06
-3.006835000000000071e-06
-1.812304999999999922e-06
1.567403000000000102e-06
6.670675999999999692e-06
-8.250513999999999998e-06
-1.704131999999999950e-06
-8.312531999999999647e-06
-8.547208999999999704e-06
-1.722601000000000145e-05
-3.113987000000000108e-05
-3.664303999999999738e-05
-2.567695999999999886e-05
-2.443306000000000134e-06
-1.094431999999999926e-05
-4.402901000000000046e-06
-7.606423000000000137e-06
-1.749635000000000063e-05
-1.409271000000000047e-05
-5.786640000000000047e-06
-5.794831000000000203e-07
-6.121725000000000244e-06
