1.408919999999999921e-03
1.394063000000000073e-03
1.344394999999999965e-03
1.324344999999999993e-03
1.341799000000000073e-03
1.377956000000000059e-03
1.344394999999999965e-03
1.318334999999999906e-03
1.340548999999999907e-03
1.361992999999999928e-03
1.334490000000000025e-03
1.293188999999999927e-03
1.304920999999999902e-03
1.350021000000000077e-03
1.341846999999999962e-03
1.294631000000000080e-03
1.301988000000000017e-03
1.344539000000000064e-03
1.322662000000000056e-03
1.291409999999999997e-03
1.288765000000000093e-03
1.313670999999999979e-03
1.318287000000000018e-03
1.287900000000000026e-03
1.276697000000000031e-03
1.304920999999999902e-03
1.321172000000000015e-03
1.287804000000000032e-03
1.269532999999999990e-03
1.300834000000000061e-03
1.291458000000000102e-03
1.254963999999999906e-03
1.240924999999999927e-03
1.288235999999999895e-03
1.320739000000000028e-03
1.267658000000000066e-03
1.214095000000000105e-03
1.243568999999999924e-03
1.294631000000000080e-03
1.270494999999999958e-03
1.241934000000000093e-03
1.241742000000000106e-03
1.252127000000000014e-03
1.226307999999999955e-03
1.180101999999999931e-03
1.185295000000000055e-03
1.244050000000000017e-03
1.243425000000000042e-03
1.178612000000000106e-03
1.170870000000000070e-03
1.202699999999999906e-03
1.212556999999999958e-03
1.167167999999999895e-03
1.160725000000000038e-03
1.184574000000000087e-03
1.201641999999999945e-03
1.154475000000000076e-03
1.134617000000000091e-03
1.169043000000000035e-03
1.206690999999999970e-03
1.194238000000000027e-03
1.144618000000000024e-03
1.171687999999999940e-03
1.214816999999999980e-03
1.205729000000000002e-03
1.175870999999999991e-03
1.201114000000000088e-03
1.270253999999999958e-03
1.264148000000000095e-03
1.233184000000000016e-03
1.256022000000000085e-03
1.304583999999999909e-03
1.300209000000000087e-03
1.264916999999999951e-03
1.258282000000000107e-03
1.313093999999999893e-03
1.326605000000000015e-03
1.283812999999999968e-03
1.275494999999999971e-03
1.317133000000000062e-03
1.347567999999999943e-03
1.311508000000000075e-03
1.274292999999999910e-03
1.302661000000000097e-03
1.338481000000000089e-03
1.309920999999999915e-03
1.271793000000000012e-03
1.292996000000000032e-03
1.331268999999999942e-03
1.296602999999999905e-03
1.262946000000000034e-03
1.285015000000000029e-03
1.316988999999999964e-03
1.293621000000000007e-03
1.255300999999999900e-03
1.267272999999999967e-03
1.309391999999999934e-03
1.314824999999999935e-03
1.264628999999999970e-03
1.265782999999999926e-03
1.309391999999999934e-03
1.318528000000000018e-03
1.276360000000000038e-03
1.252511999999999896e-03
1.303190000000000077e-03
1.315114000000000040e-03
1.278667999999999949e-03
1.237318999999999962e-03
1.277418000000000000e-03
1.309440000000000040e-03
1.277899000000000092e-03
1.253184999999999976e-03
1.267705999999999954e-03
1.300160999999999982e-03
1.282563000000000019e-03
1.252319999999999909e-03
1.272129000000000098e-03
1.319632999999999961e-03
1.311171000000000081e-03
1.275061999999999984e-03
1.263954999999999983e-03
1.293333000000000026e-03
1.302949000000000078e-03
1.279582000000000028e-03
1.269148000000000108e-03
1.300736999999999944e-03
1.310449999999999896e-03
1.281648999999999939e-03
1.258907000000000082e-03
1.294247000000000106e-03
1.321988999999999977e-03
1.296169999999999918e-03
1.273379000000000047e-03
1.298813999999999915e-03
1.335884999999999980e-03
1.304344000000000033e-03
1.266119000000000012e-03
1.283716999999999974e-03
1.328095999999999964e-03
1.327807000000000076e-03
1.285495999999999904e-03
1.297034999999999985e-03
1.338865999999999971e-03
1.330931999999999948e-03
1.285062999999999917e-03
1.282514999999999914e-03
1.323863999999999900e-03
1.328191999999999958e-03
1.295593000000000048e-03
1.268618999999999910e-03
1.320402999999999941e-03
1.331317000000000047e-03
1.292851999999999934e-03
1.272513999999999980e-03
1.275014000000000095e-03
1.291650000000000090e-03
1.254867999999999912e-03
1.208422000000000012e-03
1.240299999999999953e-03
1.253184999999999976e-03
1.204959999999999929e-03
1.154571000000000069e-03
1.162072000000000105e-03
1.206065999999999996e-03
1.192073999999999998e-03
1.159763999999999977e-03
1.193035999999999966e-03
1.246598000000000020e-03
1.249675000000000005e-03
1.244289999999999893e-03
1.253425999999999976e-03
1.320402999999999941e-03
1.338769999999999977e-03
1.320498999999999935e-03
1.313141999999999998e-03
1.354299999999999905e-03
1.382860000000000079e-03
1.368436000000000001e-03
1.348194000000000042e-03
1.384349999999999904e-03
1.404737000000000086e-03
1.361751999999999928e-03
1.331125000000000060e-03
1.374734000000000069e-03
1.398967000000000092e-03
1.381368999999999913e-03
1.350117000000000071e-03
1.370694999999999900e-03
1.408680000000000045e-03
1.384976000000000002e-03
1.333336000000000070e-03
1.328095999999999964e-03
1.331701999999999929e-03
1.322854999999999951e-03
1.302227999999999893e-03
1.236885999999999975e-03
1.174956999999999911e-03
1.093219999999999999e-03
1.056244999999999927e-03
1.269485000000000101e-03
1.586724000000000077e-03
1.757122999999999975e-03
1.721494999999999970e-03
1.715004000000000008e-03
1.801164999999999971e-03
1.803714000000000098e-03
1.683847999999999942e-03
1.554365000000000043e-03
1.527247000000000023e-03
1.518880999999999920e-03
1.443634000000000063e-03
1.370069999999999925e-03
1.372954999999999922e-03
1.390649000000000095e-03
1.374685999999999964e-03
1.333048000000000089e-03
1.351271000000000026e-03
1.394206999999999955e-03
1.398245999999999907e-03
1.347616999999999956e-03
1.337808000000000009e-03
1.382186999999999999e-03
1.377907999999999954e-03
1.334441999999999920e-03
1.337808000000000009e-03
1.373291999999999916e-03
1.376272999999999906e-03
1.350068999999999965e-03
1.329441999999999907e-03
1.354058999999999905e-03
1.379975000000000082e-03
1.340307999999999907e-03
1.315402000000000021e-03
1.330788000000000066e-03
1.364973999999999918e-03
1.346463000000000000e-03
1.319056000000000091e-03
1.355789999999999947e-03
1.372666999999999941e-03
1.343337000000000003e-03
1.297996999999999953e-03
1.312662000000000030e-03
1.359732999999999905e-03
1.372474000000000046e-03
1.321315999999999897e-03
1.306267000000000062e-03
1.340548999999999907e-03
1.352953999999999962e-03
1.307276999999999918e-03
1.292179000000000071e-03
1.321941000000000088e-03
1.320594999999999929e-03
1.289486999999999968e-03
1.279870000000000009e-03
1.311363999999999976e-03
1.331942000000000022e-03
1.292563999999999953e-03
1.253713999999999957e-03
1.273955999999999917e-03
1.306267000000000062e-03
1.285495999999999904e-03
1.239770999999999972e-03
1.260877999999999999e-03
1.306988000000000030e-03
1.296457999999999899e-03
1.256310999999999973e-03
1.268089999999999929e-03
1.311555999999999963e-03
1.289102000000000086e-03
1.243425000000000042e-03
1.257848999999999903e-03
1.313093999999999893e-03
1.319730000000000078e-03
1.304679999999999902e-03
1.292563999999999953e-03
1.318095000000000031e-03
1.358098000000000074e-03
1.343818000000000096e-03
1.323863999999999900e-03
1.359636999999999912e-03
1.401226999999999898e-03
1.383822000000000047e-03
1.369638000000000062e-03
1.408198999999999953e-03
1.430220000000000059e-03
1.400746000000000022e-03
1.384976000000000002e-03
1.416998000000000042e-03
1.448875000000000076e-03
1.451135000000000098e-03
1.420748000000000106e-03
1.402332999999999965e-03
1.446903999999999942e-03
1.450270000000000031e-03
1.400842000000000016e-03
1.400697999999999917e-03
1.450125000000000025e-03
1.442240000000000015e-03
1.388389000000000073e-03
1.414160999999999934e-03
1.454453000000000083e-03
1.444692000000000025e-03
1.395313000000000022e-03
1.388485999999999974e-03
1.426084999999999896e-03
1.446231000000000079e-03
1.415121999999999994e-03
1.392957000000000006e-03
1.422045999999999944e-03
1.441278000000000047e-03
1.423776999999999985e-03
1.394543999999999949e-03
1.417574000000000004e-03
1.446327000000000073e-03
1.418921000000000071e-03
1.392957000000000006e-03
1.437384000000000101e-03
1.458876000000000010e-03
1.441423000000000053e-03
1.413198999999999966e-03
1.429162000000000097e-03
1.443971000000000057e-03
1.450991000000000000e-03
1.417574000000000004e-03
1.408006000000000058e-03
1.446566999999999948e-03
1.474309999999999943e-03
1.445845999999999980e-03
1.441182000000000053e-03
1.464260999999999905e-03
1.481569999999999979e-03
1.451182999999999987e-03
1.430220000000000059e-03
1.464646000000000003e-03
1.479262000000000068e-03
1.472194999999999927e-03
1.428922000000000005e-03
1.463347999999999949e-03
1.498734999999999954e-03
1.475656000000000103e-03
1.453634999999999997e-03
1.484840000000000075e-03
1.515419999999999962e-03
1.498638999999999961e-03
1.464356999999999898e-03
1.460607000000000051e-03
1.492099999999999893e-03
1.509457000000000073e-03
1.467049999999999908e-03
1.438538000000000056e-03
1.487100000000000097e-03
1.524795000000000013e-03
1.486859000000000097e-03
1.485273000000000062e-03
1.508592000000000006e-03
1.513880999999999907e-03
1.489214999999999896e-03
1.443538000000000069e-03
1.497532999999999894e-03
1.537200000000000068e-03
1.495947000000000075e-03
1.462001000000000099e-03
1.520901000000000067e-03
1.547105000000000008e-03
1.519795000000000000e-03
1.480463999999999912e-03
1.480753000000000017e-03
1.490898000000000050e-03
1.475512000000000004e-03
1.419642000000000039e-03
1.422623000000000030e-03
1.445029000000000018e-03
1.450509999999999907e-03
1.430459999999999935e-03
1.375888000000000024e-03
1.391803000000000051e-03
1.406900999999999898e-03
1.357906000000000087e-03
1.349202999999999991e-03
1.425267999999999934e-03
1.467049999999999908e-03
1.433007999999999938e-03
1.434740000000000104e-03
1.499649000000000034e-03
1.523496999999999959e-03
1.500755000000000101e-03
1.501235999999999977e-03
1.527198999999999918e-03
1.573790000000000041e-03
1.573502000000000060e-03
1.525852999999999975e-03
1.543834999999999912e-03
1.579078999999999943e-03
1.575280000000000083e-03
1.546672000000000021e-03
1.551864999999999929e-03
1.589080000000000093e-03
1.594321000000000106e-03
1.543162000000000049e-03
1.530612999999999896e-03
1.596100000000000036e-03
1.601147999999999938e-03
1.556576999999999961e-03
1.518112000000000064e-03
1.518833000000000032e-03
1.516765999999999904e-03
1.481667000000000097e-03
1.467818999999999981e-03
1.474213999999999950e-03
1.423968999999999973e-03
1.297516000000000077e-03
1.210104999999999948e-03
1.444643999999999920e-03
1.738804000000000044e-03
1.836890000000000094e-03
1.812512999999999971e-03
1.853477999999999983e-03
1.933147999999999984e-03
1.920166000000000060e-03
1.829052000000000065e-03
1.757267000000000074e-03
1.724716000000000053e-03
1.687935000000000000e-03
1.615717000000000021e-03
1.557009999999999948e-03
1.587396999999999940e-03
1.565472000000000044e-03
1.499457000000000047e-03
1.501235999999999977e-03
1.551096000000000072e-03
1.559894999999999945e-03
1.511813000000000089e-03
1.477002999999999953e-03
1.510660000000000041e-03
1.547009000000000014e-03
1.517487000000000089e-03
1.479887999999999950e-03
1.476857999999999947e-03
1.504167999999999955e-03
1.500274000000000009e-03
1.464741999999999997e-03
1.486523000000000011e-03
1.522198999999999905e-03
1.502485999999999926e-03
1.447336999999999929e-03
1.446423000000000066e-03
1.477580000000000039e-03
1.503879999999999974e-03
1.500274000000000009e-03
1.441374999999999948e-03
1.454067999999999984e-03
1.508255000000000012e-03
1.451856000000000067e-03
1.413919999999999934e-03
1.461952999999999994e-03
1.478829999999999988e-03
1.456328000000000006e-03
1.421902000000000062e-03
1.441182000000000053e-03
1.467386999999999901e-03
1.422237999999999931e-03
1.391850999999999939e-03
1.439883999999999999e-03
1.496331000000000050e-03
1.470944000000000071e-03
1.397187999999999946e-03
1.392236000000000038e-03
1.428440999999999912e-03
1.407718000000000077e-03
1.390792999999999977e-03
1.376512999999999999e-03
1.423584999999999998e-03
1.422335000000000049e-03
1.369205000000000075e-03
1.344298999999999971e-03
1.382956000000000072e-03
1.422911999999999918e-03
1.393293999999999999e-03
1.350213000000000064e-03
1.402814000000000057e-03
1.424209999999999973e-03
1.388677999999999961e-03
1.336125000000000073e-03
1.371896999999999960e-03
1.406516000000000016e-03
1.400360999999999924e-03
1.376464999999999893e-03
1.384253999999999910e-03
1.424883000000000052e-03
1.417237999999999918e-03
1.395986000000000102e-03
1.419785999999999921e-03
1.465703999999999965e-03
1.468637000000000067e-03
1.439500000000000024e-03
1.431998999999999989e-03
1.483685999999999902e-03
1.504361000000000066e-03
1.452818000000000035e-03
1.451472000000000092e-03
1.508255000000000012e-03
1.527823999999999892e-03
1.399159000000000080e-03
1.395505000000000009e-03
1.513112000000000051e-03
1.543932000000000030e-03
1.489599999999999995e-03
1.467241999999999895e-03
1.466185000000000058e-03
1.483348999999999909e-03
1.447816999999999897e-03
1.421373000000000081e-03
1.458923999999999898e-03
1.497005000000000037e-03
1.488589999999999922e-03
1.420987999999999982e-03
1.425122999999999928e-03
1.470703999999999978e-03
1.467241999999999895e-03
1.417429999999999905e-03
1.418102999999999985e-03
1.473733000000000074e-03
1.472868000000000007e-03
1.437094999999999996e-03
1.419305000000000046e-03
1.447144000000000034e-03
1.465415000000000077e-03
1.435075999999999973e-03
1.405938999999999930e-03
1.454020000000000095e-03
1.430796999999999928e-03
1.407189000000000096e-03
1.434932000000000091e-03
1.394976000000000028e-03
1.498303000000000091e-03
1.467818999999999981e-03
1.387571999999999894e-03
1.436950999999999897e-03
1.472531000000000014e-03
1.437431999999999989e-03
1.391370000000000063e-03
1.425459999999999922e-03
1.465366999999999972e-03
1.456664000000000092e-03
1.406034999999999924e-03
1.410938999999999943e-03
1.459549000000000089e-03
1.452577999999999942e-03
1.403439000000000032e-03
1.398775000000000105e-03
1.452722000000000041e-03
1.452914000000000028e-03
1.427623000000000043e-03
1.398245999999999907e-03
1.429450999999999986e-03
1.431998999999999989e-03
1.428103999999999919e-03
1.415554999999999982e-03
1.419160999999999947e-03
1.454837000000000057e-03
1.445412999999999993e-03
1.396852000000000076e-03
1.434402999999999893e-03
1.464068999999999917e-03
1.444547999999999926e-03
1.408582999999999927e-03
1.426324999999999989e-03
1.441519000000000047e-03
1.450799000000000012e-03
1.397861000000000025e-03
1.374446000000000088e-03
1.452432999999999936e-03
1.474838999999999924e-03
1.414015999999999927e-03
1.403631000000000019e-03
1.435845000000000047e-03
1.466424999999999933e-03
1.395697999999999904e-03
1.372090000000000072e-03
1.433105000000000056e-03
1.451376000000000098e-03
1.415121999999999994e-03
1.384447000000000021e-03
1.441278000000000047e-03
1.478252999999999902e-03
1.417862999999999893e-03
1.355405999999999972e-03
1.382715999999999980e-03
1.414305000000000033e-03
1.383918000000000040e-03
1.333912999999999939e-03
1.323191000000000037e-03
1.375502999999999925e-03
1.340307999999999907e-03
1.271023000000000031e-03
1.247175000000000106e-03
1.288429000000000007e-03
1.291650000000000090e-03
1.243184000000000042e-03
1.241020999999999921e-03
1.315835000000000008e-03
1.355789999999999947e-03
1.338769999999999977e-03
1.341895000000000067e-03
1.398486000000000000e-03
1.405650000000000042e-03
1.390263999999999996e-03
1.380359999999999964e-03
1.423729000000000097e-03
1.458588000000000029e-03
1.438873999999999926e-03
1.389255000000000047e-03
1.439835999999999894e-03
1.485128000000000056e-03
1.450509999999999907e-03
1.389255000000000047e-03
1.438152999999999957e-03
1.462385999999999981e-03
1.430316000000000053e-03
1.392187999999999932e-03
1.403919999999999908e-03
1.460654999999999940e-03
1.435220000000000072e-03
1.394639999999999942e-03
1.379783000000000094e-03
1.380792000000000044e-03
1.364348999999999944e-03
1.329249999999999919e-03
1.284149999999999962e-03
1.281648999999999939e-03
1.217797999999999971e-03
1.127933999999999925e-03
1.056534000000000032e-03
1.338624999999999971e-03
1.646200000000000007e-03
1.742314000000000015e-03
1.714234999999999934e-03
1.782076999999999967e-03
1.860642000000000025e-03
1.789145000000000015e-03
1.640142000000000032e-03
1.553162999999999983e-03
1.555567000000000104e-03
1.461087999999999927e-03
1.428825000000000104e-03
1.394735999999999936e-03
1.430316000000000053e-03
1.428344999999999919e-03
1.362617999999999902e-03
1.341895000000000067e-03
1.354156000000000023e-03
1.369877999999999938e-03
1.367329999999999934e-03
1.332999999999999984e-03
1.349058999999999892e-03
1.376512999999999999e-03
1.354011000000000017e-03
1.308719000000000071e-03
1.341895000000000067e-03
1.370598999999999906e-03
1.356175000000000045e-03
1.287706999999999914e-03
1.319536999999999967e-03
1.345693000000000019e-03
1.324248999999999999e-03
1.283187999999999994e-03
1.310449999999999896e-03
1.364397000000000049e-03
1.363147000000000100e-03
1.276601000000000038e-03
1.279870000000000009e-03
1.338722000000000089e-03
1.341509999999999968e-03
1.303429999999999953e-03
1.294631000000000080e-03
1.303862999999999940e-03
1.325402999999999954e-03
1.292563999999999953e-03
1.264244000000000088e-03
1.305305000000000094e-03
1.341654000000000067e-03
1.290881000000000016e-03
1.272899000000000079e-03
1.263475000000000015e-03
1.286842000000000064e-03
1.258811000000000088e-03
1.205921999999999897e-03
1.257513000000000034e-03
1.282946999999999994e-03
1.260300999999999913e-03
1.209912000000000053e-03
1.222413000000000102e-03
1.236405000000000099e-03
1.240779999999999921e-03
1.215633999999999942e-03
1.193997999999999934e-03
1.219384000000000006e-03
1.243954000000000023e-03
1.191112999999999937e-03
1.163994999999999917e-03
1.212893000000000044e-03
1.237030000000000074e-03
1.204479000000000053e-03
1.161205999999999914e-03
1.208758000000000098e-03
1.250540999999999979e-03
1.207460000000000044e-03
1.185583000000000036e-03
1.201257999999999970e-03
1.247896000000000075e-03
1.240877000000000039e-03
1.233231999999999905e-03
1.280688000000000095e-03
1.300736999999999944e-03
1.285831999999999991e-03
1.252464000000000008e-03
1.279245000000000035e-03
1.335596000000000092e-03
1.348962999999999898e-03
1.270349999999999951e-03
1.293333000000000026e-03
1.314969999999999941e-03
1.340693000000000006e-03
1.287563000000000032e-03
1.273187000000000060e-03
1.323961000000000018e-03
1.346511000000000105e-03
1.315643000000000021e-03
1.267417000000000066e-03
1.334441999999999920e-03
1.392812999999999907e-03
1.291554000000000096e-03
1.284870999999999930e-03
1.305834000000000075e-03
1.327615000000000088e-03
1.324585999999999993e-03
1.266984999999999986e-03
1.278475999999999961e-03
1.297563999999999966e-03
1.287563000000000032e-03
1.249675000000000005e-03
1.252752999999999896e-03
1.302516999999999998e-03
1.294631000000000080e-03
1.266503999999999894e-03
1.228855999999999959e-03
1.270639000000000057e-03
1.292612000000000058e-03
1.252560000000000002e-03
1.242367000000000081e-03
1.280351000000000102e-03
1.273716000000000041e-03
1.255830000000000097e-03
1.244962999999999972e-03
1.282226000000000025e-03
1.277610999999999894e-03
1.253184999999999976e-03
1.234433999999999965e-03
1.280447000000000096e-03
1.293621000000000007e-03
1.274245000000000022e-03
1.250781000000000072e-03
1.226932999999999930e-03
1.280062999999999904e-03
1.277177999999999907e-03
1.226211999999999962e-03
1.243521000000000036e-03
1.297853000000000071e-03
1.329681999999999999e-03
1.256935999999999947e-03
1.219239999999999907e-03
1.269341000000000002e-03
1.292226999999999959e-03
1.237077999999999962e-03
1.233184000000000016e-03
1.285976999999999997e-03
1.297804999999999966e-03
1.246310000000000039e-03
1.248762000000000049e-03
1.274869999999999996e-03
1.291265999999999898e-03
1.265541999999999926e-03
1.240444000000000052e-03
1.270110000000000076e-03
1.275494999999999971e-03
1.279196999999999930e-03
1.254867999999999912e-03
1.241308999999999902e-03
1.296794999999999892e-03
1.292130999999999965e-03
1.242126999999999988e-03
1.239482000000000084e-03
1.276311999999999933e-03
1.274051999999999910e-03
1.256165999999999967e-03
1.234529999999999959e-03
1.267850000000000053e-03
1.286697999999999965e-03
1.260108999999999925e-03
1.241357000000000007e-03
1.276264000000000044e-03
1.276601000000000038e-03
1.237798999999999931e-03
1.227173000000000022e-03
1.253184999999999976e-03
1.290399999999999924e-03
1.278187000000000073e-03
1.209287000000000079e-03
1.211931999999999983e-03
1.271168000000000037e-03
1.278667999999999949e-03
1.206402000000000082e-03
1.239915000000000071e-03
1.320065999999999948e-03
1.278620000000000060e-03
1.203901999999999967e-03
1.194575000000000021e-03
1.279966000000000003e-03
1.265061000000000050e-03
1.246741999999999902e-03
1.225490999999999994e-03
1.277226000000000012e-03
1.271407999999999913e-03
1.241549999999999902e-03
1.211113999999999897e-03
1.257272000000000034e-03
1.271168000000000037e-03
1.212652999999999951e-03
1.161446999999999913e-03
1.189044999999999902e-03
1.178900000000000087e-03
1.193997999999999934e-03
1.123510999999999998e-03
1.132212999999999969e-03
1.157791999999999936e-03
1.121154999999999981e-03
1.074276000000000094e-03
1.073170000000000027e-03
1.154618999999999958e-03
1.143080000000000094e-03
1.114807999999999901e-03
1.184045000000000106e-03
1.221787999999999911e-03
1.251502999999999947e-03
1.172361000000000019e-03
1.236309000000000106e-03
1.308478999999999979e-03
1.275494999999999971e-03
1.221548000000000035e-03
1.223230999999999971e-03
1.289341999999999962e-03
1.342471999999999936e-03
1.283573000000000092e-03
1.235491000000000020e-03
1.281938000000000044e-03
1.298284999999999934e-03
1.251261999999999947e-03
1.251839000000000033e-03
1.262801999999999935e-03
1.291265999999999898e-03
1.272705999999999968e-03
1.275590999999999964e-03
1.266792000000000092e-03
1.280111000000000009e-03
1.237655000000000049e-03
1.139232999999999912e-03
1.102307000000000070e-03
1.180487000000000029e-03
1.171015000000000077e-03
1.043408000000000009e-03
9.028184999999999552e-04
8.742583000000000385e-04
1.101729999999999984e-03
1.311026999999999982e-03
1.490512999999999951e-03
1.637353000000000029e-03
1.644325000000000083e-03
1.657884000000000094e-03
1.622832999999999958e-03
1.564077999999999996e-03
1.491041999999999932e-03
1.382282999999999993e-03
1.275976000000000063e-03
1.280880000000000083e-03
1.301698999999999912e-03
1.217221000000000102e-03
1.151974999999999961e-03
1.210488999999999923e-03
1.248472999999999944e-03
1.216740000000000009e-03
1.175150000000000023e-03
1.177986999999999914e-03
1.217556999999999971e-03
1.210778000000000028e-03
1.176591999999999959e-03
1.164235000000000009e-03
1.198372999999999973e-03
1.201353999999999964e-03
1.130146000000000059e-03
1.125626000000000014e-03
1.161062000000000032e-03
1.206210000000000095e-03
1.176207000000000077e-03
1.124231999999999966e-03
1.174813000000000029e-03
1.186832999999999985e-03
1.149763000000000044e-03
1.125626000000000014e-03
1.176977000000000058e-03
1.161446999999999913e-03
1.160725000000000038e-03
1.120674000000000106e-03
1.137406000000000094e-03
1.205296999999999922e-03
1.156205999999999900e-03
1.072737000000000039e-03
1.106489999999999904e-03
1.144185999999999944e-03
1.195679999999999963e-03
1.097450999999999939e-03
1.059033999999999930e-03
1.132406000000000081e-03
1.161205999999999914e-03
1.065428999999999899e-03
1.045331000000000038e-03
1.073554000000000001e-03
1.105047999999999968e-03
1.090335000000000002e-03
1.024752000000000085e-03
1.049320999999999978e-03
1.104806999999999968e-03
1.071487000000000090e-03
1.017396000000000056e-03
1.045427000000000032e-03
1.081871999999999999e-03
1.047542999999999955e-03
1.017492000000000049e-03
1.018550000000000011e-03
1.067304000000000039e-03
1.041580000000000067e-03
9.987401999999999825e-04
1.001048000000000042e-03
1.038936000000000070e-03
1.068025000000000007e-03
1.011914000000000043e-03
1.020136000000000046e-03
1.070718000000000017e-03
1.025232999999999960e-03
1.033983999999999945e-03
1.043648000000000102e-03
1.067880999999999908e-03
1.118655000000000083e-03
1.099902999999999948e-03
1.029753000000000005e-03
1.103075999999999926e-03
1.132741999999999950e-03
1.126107000000000106e-03
1.086296000000000050e-03
1.146590000000000066e-03
1.169284000000000035e-03
1.132453999999999969e-03
1.099277999999999974e-03
1.117549000000000016e-03
1.154281999999999964e-03
1.148321000000000107e-03
1.113990999999999940e-03
1.116058000000000067e-03
1.153416999999999897e-03
1.178996000000000080e-03
1.138560000000000049e-03
1.096392999999999977e-03
1.161638999999999901e-03
1.151204999999999980e-03
1.128462999999999905e-03
1.106489999999999904e-03
1.085093999999999989e-03
1.130530000000000033e-03
1.141155999999999941e-03
1.088987999999999935e-03
1.097162000000000050e-03
1.133223000000000043e-03
1.099565999999999955e-03
1.061438000000000052e-03
1.108941999999999914e-03
1.185246999999999950e-03
1.152936000000000022e-03
1.056293000000000032e-03
1.055331999999999971e-03
1.166975999999999907e-03
1.104134000000000105e-03
1.081439999999999919e-03
1.101682000000000095e-03
1.102546999999999945e-03
1.125434000000000026e-03
1.083315000000000059e-03
1.084612999999999897e-03
1.125577999999999908e-03
1.127837999999999931e-03
1.085575000000000082e-03
1.063602000000000080e-03
1.104373999999999981e-03
1.120962000000000087e-03
1.079660999999999989e-03
1.064227000000000055e-03
1.091968999999999926e-03
1.129954000000000071e-03
1.134858000000000091e-03
1.078266000000000033e-03
1.150147999999999926e-03
1.155100000000000050e-03
1.122163999999999931e-03
1.080285999999999963e-03
1.072880999999999922e-03
1.117451999999999898e-03
1.114182999999999927e-03
1.073121999999999921e-03
1.100286999999999923e-03
1.155339999999999926e-03
1.130579000000000046e-03
1.072880999999999922e-03
1.073602000000000107e-03
1.096441000000000082e-03
1.152791999999999923e-03
1.127357000000000055e-03
1.091343999999999951e-03
1.155917000000000012e-03
1.158706000000000015e-03
1.127645999999999944e-03
1.068986999999999975e-03
1.101201000000000003e-03
1.154955999999999951e-03
1.135818999999999935e-03
1.115721999999999981e-03
1.107979999999999946e-03
1.156062000000000018e-03
1.103845999999999907e-03
1.157791999999999936e-03
1.135867000000000040e-03
1.173996000000000067e-03
1.146204999999999967e-03
1.091441000000000069e-03
1.143993000000000050e-03
1.166399000000000038e-03
1.125481999999999915e-03
1.109423000000000006e-03
1.089949999999999903e-03
1.122163999999999931e-03
1.172120999999999927e-03
1.127645999999999944e-03
1.124231999999999966e-03
1.160484999999999945e-03
1.174909000000000023e-03
1.131781000000000106e-03
1.083219000000000065e-03
1.151204999999999980e-03
1.170919000000000083e-03
1.162024000000000000e-03
1.094422000000000060e-03
1.104181999999999993e-03
1.151782000000000066e-03
1.184670000000000081e-03
1.084661000000000002e-03
1.134905999999999979e-03
1.160484999999999945e-03
1.159620000000000095e-03
1.136637000000000021e-03
1.136829000000000008e-03
1.172120999999999927e-03
1.169619999999999905e-03
1.107211000000000089e-03
1.093170999999999986e-03
1.154042000000000089e-03
1.148946000000000082e-03
1.077159999999999966e-03
1.024607999999999986e-03
1.076247000000000011e-03
1.078121999999999935e-03
1.054514000000000102e-03
9.978747999999999958e-04
1.014078000000000071e-03
1.061822999999999934e-03
1.012731999999999912e-03
9.847486999999999387e-04
1.001624999999999911e-03
1.040859000000000098e-03
1.095816000000000108e-03
1.075140999999999944e-03
1.075765999999999918e-03
1.134087999999999893e-03
1.134425000000000103e-03
1.119086999999999946e-03
1.135579000000000059e-03
1.171158999999999959e-03
1.166158999999999946e-03
1.158946000000000108e-03
1.173467000000000086e-03
1.221452000000000041e-03
1.220778999999999961e-03
1.132549999999999963e-03
1.179333000000000074e-03
1.216258999999999917e-03
1.204383000000000059e-03
1.188227999999999941e-03
1.159379000000000095e-03
1.203276999999999992e-03
1.241116999999999915e-03
1.199718999999999916e-03
1.167793000000000086e-03
1.143368000000000075e-03
1.154763000000000057e-03
1.128702999999999998e-03
1.054851000000000096e-03
1.098701000000000105e-03
1.111346000000000035e-03
9.720071999999999523e-04
8.776240000000000256e-04
8.403612000000000408e-04
1.106778000000000102e-03
1.436470000000000021e-03
1.490369000000000069e-03
1.467002000000000020e-03
1.553019000000000101e-03
1.593070000000000033e-03
1.548691999999999951e-03
1.421181000000000094e-03
1.375935999999999913e-03
1.358098000000000074e-03
1.274822000000000108e-03
1.209046999999999986e-03
1.169139999999999936e-03
1.178035000000000020e-03
1.178131000000000013e-03
1.136059999999999934e-03
1.155388000000000031e-03
1.192698999999999973e-03
1.156205999999999900e-03
1.114086999999999933e-03
1.137886999999999970e-03
1.168322000000000067e-03
1.182890999999999934e-03
1.102546999999999945e-03
1.136347999999999915e-03
1.136780999999999903e-03
1.157070999999999968e-03
1.113269000000000064e-03
1.078266000000000033e-03
1.146204999999999967e-03
1.159043000000000009e-03
1.110335999999999962e-03
1.089228999999999935e-03
1.167311999999999994e-03
1.166832000000000025e-03
1.089085000000000053e-03
1.110335999999999962e-03
1.115241000000000106e-03
1.158946000000000108e-03
1.090863999999999983e-03
1.104326000000000092e-03
1.134858000000000091e-03
1.106056999999999917e-03
1.111442000000000029e-03
1.076679999999999998e-03
1.100047000000000047e-03
1.105192000000000067e-03
1.087064999999999906e-03
1.087017000000000018e-03
1.129231999999999979e-03
1.159955999999999965e-03
1.117067999999999924e-03
1.046629000000000092e-03
1.026868000000000008e-03
1.067688999999999921e-03
1.097017999999999951e-03
1.081776000000000005e-03
1.054947000000000090e-03
1.074227999999999988e-03
1.094518000000000053e-03
1.060572999999999984e-03
1.001095999999999930e-03
1.054129999999999911e-03
1.107452000000000089e-03
1.035186000000000005e-03
1.040427000000000018e-03
1.048359999999999917e-03
1.083650999999999929e-03
1.099759000000000066e-03
1.024126999999999893e-03
1.026243000000000034e-03
1.028695000000000043e-03
1.030665999999999961e-03
1.004270000000000032e-03
1.024752000000000085e-03
1.063553000000000068e-03
1.123221999999999892e-03
1.087594000000000104e-03
1.052928000000000067e-03
1.124423999999999953e-03
1.158706000000000015e-03
1.109037999999999908e-03
1.108508999999999927e-03
1.155821000000000019e-03
1.176158999999999972e-03
1.135050000000000078e-03
1.086921000000000024e-03
1.180005999999999937e-03
1.210153000000000053e-03
1.127212999999999956e-03
1.123462999999999892e-03
1.182120999999999953e-03
1.170052999999999892e-03
1.190967999999999931e-03
1.185534999999999931e-03
1.155196000000000044e-03
1.200873000000000088e-03
1.204142999999999967e-03
1.126540000000000093e-03
1.097403000000000050e-03
1.229576999999999927e-03
1.218759000000000032e-03
1.150147999999999926e-03
1.160533000000000051e-03
1.171687999999999940e-03
1.169043000000000035e-03
1.141637000000000034e-03
1.130626999999999934e-03
1.199863000000000015e-03
1.187361999999999966e-03
1.164812000000000096e-03
1.133223000000000043e-03
1.157599999999999948e-03
1.191833999999999906e-03
1.130579000000000046e-03
1.103508999999999914e-03
1.189621999999999988e-03
1.203132999999999894e-03
1.184766000000000074e-03
1.119807999999999915e-03
1.135338999999999966e-03
1.195824999999999970e-03
1.188276000000000046e-03
1.124905000000000046e-03
1.158802000000000009e-03
1.158465999999999923e-03
1.153128999999999916e-03
1.129713000000000071e-03
1.144906999999999913e-03
1.189478000000000106e-03
1.200487999999999989e-03
1.164090999999999911e-03
1.094324999999999942e-03
1.131973000000000094e-03
1.215874000000000035e-03
1.194046000000000040e-03
1.136443999999999909e-03
1.165678000000000070e-03
1.253954999999999957e-03
1.175919000000000096e-03
1.149667000000000050e-03
1.182457999999999947e-03
1.202074999999999932e-03
1.193805000000000040e-03
1.136829000000000008e-03
1.190054999999999976e-03
1.248905999999999931e-03
1.151686000000000073e-03
1.121538999999999956e-03
1.146492999999999948e-03
1.222173000000000009e-03
1.197411000000000005e-03
1.170678000000000083e-03
1.159522999999999977e-03
1.178996000000000080e-03
1.195487999999999976e-03
1.153801999999999996e-03
1.190438999999999950e-03
1.236597000000000087e-03
1.204575000000000047e-03
1.166736000000000032e-03
1.138607999999999938e-03
1.213373999999999920e-03
1.254195000000000049e-03
1.175150000000000023e-03
1.151927000000000072e-03
1.180487000000000029e-03
1.221307999999999942e-03
1.208469999999999900e-03
1.145963999999999967e-03
1.149234000000000063e-03
1.225298000000000099e-03
1.212076000000000082e-03
1.188805000000000027e-03
1.200969000000000082e-03
1.222028999999999910e-03
1.197603999999999900e-03
1.169139999999999936e-03
1.188372000000000039e-03
1.206451000000000095e-03
1.222317000000000108e-03
1.198468999999999967e-03
1.172985999999999994e-03
1.202795999999999900e-03
1.191400999999999918e-03
1.190342999999999957e-03
1.124423999999999953e-03
1.140291000000000091e-03
1.189334000000000007e-03
1.130626999999999934e-03
1.040233999999999907e-03
1.115047999999999994e-03
1.115384999999999988e-03
1.033407000000000076e-03
9.914318999999999563e-04
1.093989000000000072e-03
1.136204000000000033e-03
1.088844000000000053e-03
1.080669999999999938e-03
1.120817999999999988e-03
1.155772999999999913e-03
1.155676999999999920e-03
1.177169000000000045e-03
1.176783999999999946e-03
1.239915000000000071e-03
1.263811000000000101e-03
1.216162999999999923e-03
1.186208000000000011e-03
1.236501000000000093e-03
1.251022000000000071e-03
1.197843999999999992e-03
1.208373999999999907e-03
1.237318999999999962e-03
1.282081999999999927e-03
1.227077000000000029e-03
1.253088999999999982e-03
1.222510000000000003e-03
1.278091000000000079e-03
1.255685999999999998e-03
1.176352000000000083e-03
1.210633999999999929e-03
1.249001999999999925e-03
1.217942000000000070e-03
1.128029999999999918e-03
1.085093999999999989e-03
1.186112000000000017e-03
1.163032999999999949e-03
1.043504000000000003e-03
9.120499999999999701e-04
9.323403000000000289e-04
1.135338999999999966e-03
1.361800000000000033e-03
1.487533000000000084e-03
1.532872999999999918e-03
1.583935000000000074e-03
1.597012999999999992e-03
1.558403999999999996e-03
1.514121000000000000e-03
1.437335999999999996e-03
1.366175999999999979e-03
1.283092000000000000e-03
1.248521000000000049e-03
1.277754999999999993e-03
1.194430000000000014e-03
1.189525999999999995e-03
1.212893000000000044e-03
1.233135000000000004e-03
1.189621999999999988e-03
1.162119999999999993e-03
1.188180000000000052e-03
1.234433999999999965e-03
1.191641999999999918e-03
1.146204999999999967e-03
1.157456000000000066e-03
1.198372999999999973e-03
1.208230000000000024e-03
1.219431999999999894e-03
1.092401999999999913e-03
1.172649999999999908e-03
1.197939999999999986e-03
1.147166000000000028e-03
1.148321000000000107e-03
1.125242000000000039e-03
1.181832999999999972e-03
1.182986999999999927e-03
1.130481999999999928e-03
1.139328999999999906e-03
1.181352000000000096e-03
1.129713000000000071e-03
1.112499999999999991e-03
1.130818999999999921e-03
1.217172999999999996e-03
1.189717999999999982e-03
1.148705000000000082e-03
1.099614000000000060e-03
1.147983999999999897e-03
1.137743000000000088e-03
1.115913999999999968e-03
1.094757999999999929e-03
1.162936999999999955e-03
1.160341000000000063e-03
1.105047999999999968e-03
1.069131000000000074e-03
1.115144999999999895e-03
1.141829999999999928e-03
1.103075999999999926e-03
1.066918999999999940e-03
1.098701000000000105e-03
1.110239999999999968e-03
1.076198999999999906e-03
1.032205000000000015e-03
1.088219000000000079e-03
1.089228999999999935e-03
1.055427999999999965e-03
1.040955000000000092e-03
1.043408000000000009e-03
1.096151999999999977e-03
1.104277999999999987e-03
1.040906999999999987e-03
1.049514000000000089e-03
1.084179999999999909e-03
1.056581999999999921e-03
1.069948000000000036e-03
1.032492999999999996e-03
1.079948999999999970e-03
1.105527999999999936e-03
1.074035000000000094e-03
1.073505999999999896e-03
1.133752000000000024e-03
1.141637000000000034e-03
1.124184000000000077e-03
1.122116000000000042e-03
1.146253000000000072e-03
1.161734999999999894e-03
1.165533999999999971e-03
1.143176000000000088e-03
1.183227000000000020e-03
1.224143999999999927e-03
1.125963000000000007e-03
1.142839000000000094e-03
1.184045000000000106e-03
1.200296000000000002e-03
1.203613999999999986e-03
1.165196999999999978e-03
1.139522000000000018e-03
1.205441000000000021e-03
1.201353999999999964e-03
1.165966000000000051e-03
1.153609000000000101e-03
1.193276000000000059e-03
1.205008000000000034e-03
1.160870000000000044e-03
1.147262999999999929e-03
1.204912000000000040e-03
1.177602000000000032e-03
1.141541000000000040e-03
1.118077999999999997e-03
1.164427999999999904e-03
1.209528000000000079e-03
1.148080000000000107e-03
1.082737999999999973e-03
1.161301999999999907e-03
1.193564999999999947e-03
1.169284000000000035e-03
1.149763000000000044e-03
1.156301999999999894e-03
1.173610999999999968e-03
1.147262999999999929e-03
1.128607000000000004e-03
1.131010999999999909e-03
1.151637999999999967e-03
1.160292999999999958e-03
1.140338999999999979e-03
1.150435999999999907e-03
1.173322999999999987e-03
1.197027000000000030e-03
1.115144999999999895e-03
1.140099000000000104e-03
1.149330000000000056e-03
1.183323000000000014e-03
1.134185000000000011e-03
1.089085000000000053e-03
1.160004000000000070e-03
1.196929999999999912e-03
1.140195000000000097e-03
1.123510999999999998e-03
1.165533999999999971e-03
1.172504999999999901e-03
1.183323000000000014e-03
1.129713000000000071e-03
1.140146999999999992e-03
1.183564000000000014e-03
1.185679000000000030e-03
1.157215000000000066e-03
1.094565999999999942e-03
1.192459000000000097e-03
1.215057000000000073e-03
1.156494000000000098e-03
1.149281999999999951e-03
1.172265000000000026e-03
1.196882000000000024e-03
1.142790999999999989e-03
1.136780999999999903e-03
1.190438999999999950e-03
1.218567000000000044e-03
1.162889000000000067e-03
1.110239999999999968e-03
1.164090999999999911e-03
1.195487999999999976e-03
1.176832999999999959e-03
1.127933999999999925e-03
1.169043000000000035e-03
1.221644000000000028e-03
1.146300999999999961e-03
1.112644000000000090e-03
1.184862000000000068e-03
1.193323999999999947e-03
1.179525000000000061e-03
1.170390000000000102e-03
1.161350999999999920e-03
1.204383000000000059e-03
1.156686999999999993e-03
1.151012999999999993e-03
1.146061000000000085e-03
1.187747000000000065e-03
1.196737999999999925e-03
1.147503000000000021e-03
1.133415000000000030e-03
1.166687000000000019e-03
1.212460999999999964e-03
1.183804000000000106e-03
1.143656999999999964e-03
1.178178999999999902e-03
1.200536000000000094e-03
1.150627999999999894e-03
1.129664999999999966e-03
1.170293999999999892e-03
1.229000999999999965e-03
1.175438000000000004e-03
1.142647000000000107e-03
1.140530999999999967e-03
1.180054000000000042e-03
1.159620000000000095e-03
1.114568000000000026e-03
1.100094999999999936e-03
1.158418000000000034e-03
1.141541000000000040e-03
1.082594000000000091e-03
1.096680999999999958e-03
1.102403000000000063e-03
1.066871000000000052e-03
1.023454000000000030e-03
1.007443000000000010e-03
1.056581999999999921e-03
1.061534000000000045e-03
1.010328000000000007e-03
1.033213999999999964e-03
1.093797000000000085e-03
1.149089999999999964e-03
1.115193000000000000e-03
1.109519000000000000e-03
1.172169000000000032e-03
1.191496999999999912e-03
1.187794999999999953e-03
1.157648000000000054e-03
1.193035999999999966e-03
1.185630999999999925e-03
1.207219999999999951e-03
1.213614999999999920e-03
1.201594000000000056e-03
1.231164000000000086e-03
1.246020999999999934e-03
1.184045000000000106e-03
1.200728999999999989e-03
1.238521000000000023e-03
1.222510000000000003e-03
1.171303000000000058e-03
1.183468000000000020e-03
1.221548000000000035e-03
1.226595999999999936e-03
1.187410000000000071e-03
1.145002999999999906e-03
1.139665999999999900e-03
1.147262999999999929e-03
1.081871999999999999e-03
1.017780000000000030e-03
1.057687999999999988e-03
9.405621999999999984e-04
8.456019999999999856e-04
9.546017000000000391e-04
1.286938000000000058e-03
1.576385999999999933e-03
1.544748999999999992e-03
1.532006999999999943e-03
1.602349999999999998e-03
1.619034000000000098e-03
1.525036000000000013e-03
1.373244000000000027e-03
1.295977999999999930e-03
1.281023999999999965e-03
1.277322000000000006e-03
1.207748999999999932e-03
1.157840999999999948e-03
1.189189000000000001e-03
1.206547000000000088e-03
1.149473999999999939e-03
1.124615999999999940e-03
1.151974999999999961e-03
1.207172000000000063e-03
1.180342999999999930e-03
1.100047000000000047e-03
1.147262999999999929e-03
1.181063999999999899e-03
1.152166999999999948e-03
1.140626999999999960e-03
1.142406000000000107e-03
1.171207000000000064e-03
1.144234000000000050e-03
1.088748000000000059e-03
1.132406000000000081e-03
1.164908000000000089e-03
1.149522000000000044e-03
1.146157000000000079e-03
1.099373999999999968e-03
1.140050000000000091e-03
1.170341999999999997e-03
1.119615999999999927e-03
1.103124000000000032e-03
1.152454999999999929e-03
1.173802999999999956e-03
1.102979999999999933e-03
1.043744000000000095e-03
1.110480999999999968e-03
1.160388999999999952e-03
1.135387000000000072e-03
1.071054000000000103e-03
1.101249000000000108e-03
1.141733000000000027e-03
1.094277000000000053e-03
1.066342000000000071e-03
1.095335000000000015e-03
1.124809000000000052e-03
1.058265000000000074e-03
1.072255999999999947e-03
1.061052999999999953e-03
1.104567000000000092e-03
1.101682000000000095e-03
1.049753999999999965e-03
9.839312000000000231e-04
1.074178999999999976e-03
1.075622000000000036e-03
1.041629000000000079e-03
1.019270999999999979e-03
1.037446000000000028e-03
1.040186000000000019e-03
1.039657000000000038e-03
1.033021999999999977e-03
1.064899999999999918e-03
1.038646999999999964e-03
1.026002000000000034e-03
9.997980000000000929e-04
1.015808999999999896e-03
1.061293999999999953e-03
1.020183999999999935e-03
1.033791000000000050e-03
1.074131000000000087e-03
1.103749000000000006e-03
1.077688999999999947e-03
1.046629000000000092e-03
1.090863999999999983e-03
1.128895999999999893e-03
1.107740000000000070e-03
1.107595999999999971e-03
1.105143999999999961e-03
1.160051999999999958e-03
1.169380000000000029e-03
1.128223000000000030e-03
1.099085000000000079e-03
1.178178999999999902e-03
1.225970999999999962e-03
1.150339999999999913e-03
1.141829999999999928e-03
1.186208000000000011e-03
1.195007000000000100e-03
1.156974999999999974e-03
1.142309999999999897e-03
1.162744999999999968e-03
1.175533999999999997e-03
1.188419999999999928e-03
1.134425000000000103e-03
1.120770000000000099e-03
1.178178999999999902e-03
1.164572000000000003e-03
1.134185000000000011e-03
1.138944999999999931e-03
1.188756999999999921e-03
1.195440000000000088e-03
1.142213999999999903e-03
1.143511999999999957e-03
1.158657999999999910e-03
1.157311999999999967e-03
1.106778000000000102e-03
1.126491999999999988e-03
1.193709000000000046e-03
1.194718999999999903e-03
1.126924000000000068e-03
1.121683999999999962e-03
1.171591999999999946e-03
1.204526999999999941e-03
1.160580999999999939e-03
1.122645000000000023e-03
1.160004000000000070e-03
1.191786000000000017e-03
1.145242999999999999e-03
1.108557000000000032e-03
1.144714000000000018e-03
1.170678000000000083e-03
1.150725000000000012e-03
1.133944000000000011e-03
1.170486000000000096e-03
1.208565999999999894e-03
1.165533999999999971e-03
1.129088000000000097e-03
1.139858000000000104e-03
1.204671000000000040e-03
1.201835000000000056e-03
1.157840999999999948e-03
1.146157000000000079e-03
1.210345000000000041e-03
1.218422999999999945e-03
1.163851000000000035e-03
1.120674000000000106e-03
1.190246999999999963e-03
1.222558000000000108e-03
1.155676999999999920e-03
1.105431999999999942e-03
1.178467000000000100e-03
1.212219999999999964e-03
1.177216999999999934e-03
1.139858000000000104e-03
1.187939000000000052e-03
1.219239999999999907e-03
1.178659999999999994e-03
1.161495000000000019e-03
1.170774000000000077e-03
1.176158999999999972e-03
1.169139999999999936e-03
1.150147999999999926e-03
1.173418999999999981e-03
1.195487999999999976e-03
1.226644999999999949e-03
1.149522000000000044e-03
1.173996000000000067e-03
1.214432000000000098e-03
1.231019999999999988e-03
1.165774000000000064e-03
1.156062000000000018e-03
1.192459000000000097e-03
1.214720000000000079e-03
1.157070999999999968e-03
1.169909000000000010e-03
1.193419999999999941e-03
1.218806999999999920e-03
1.178563000000000093e-03
1.144522000000000031e-03
1.168418000000000061e-03
1.223567000000000057e-03
1.218710999999999926e-03
1.151829999999999955e-03
1.152311000000000047e-03
1.222750000000000095e-03
1.206210000000000095e-03
1.174668999999999930e-03
1.180679000000000017e-03
1.222269000000000003e-03
1.228134999999999991e-03
1.174909000000000023e-03
1.175005000000000016e-03
1.212027999999999977e-03
1.223085999999999965e-03
1.167216000000000000e-03
1.145820000000000085e-03
1.200632999999999995e-03
1.229480999999999933e-03
1.196978000000000018e-03
1.182649999999999934e-03
1.218951999999999926e-03
1.239145999999999997e-03
1.192025999999999893e-03
1.176832999999999959e-03
1.191257000000000036e-03
1.230105999999999908e-03
1.225443000000000105e-03
1.203372999999999986e-03
1.181352000000000096e-03
1.209671999999999961e-03
1.196978000000000018e-03
1.153128999999999916e-03
1.135916000000000052e-03
1.181977000000000071e-03
1.176832999999999959e-03
1.132598000000000068e-03
1.101009000000000015e-03
1.117596999999999905e-03
1.114568000000000026e-03
1.061342000000000058e-03
1.042879000000000028e-03
1.081823999999999893e-03
1.128223000000000030e-03
1.124809000000000052e-03
1.089036000000000040e-03
1.157023000000000079e-03
1.219961000000000092e-03
1.168514000000000054e-03
1.143464000000000069e-03
1.217701000000000070e-03
1.256359000000000078e-03
1.234962999999999946e-03
1.193227999999999954e-03
1.227222000000000035e-03
1.265302000000000050e-03
1.264677000000000075e-03
1.237559000000000055e-03
1.220345999999999974e-03
1.283187999999999994e-03
1.290207999999999936e-03
1.246502000000000027e-03
1.229962000000000026e-03
1.263954999999999983e-03
1.268522999999999916e-03
1.251453999999999935e-03
1.234866000000000045e-03
1.264820999999999957e-03
1.271697000000000018e-03
1.224143999999999927e-03
1.140291000000000091e-03
1.151349999999999986e-03
1.205537000000000015e-03
1.153897999999999990e-03
1.038454999999999977e-03
9.526785999999999761e-04
9.202238000000000171e-04
1.055476000000000070e-03
1.360405999999999985e-03
1.614130000000000079e-03
1.639950000000000045e-03
1.605139000000000002e-03
1.633890999999999946e-03
1.623602000000000031e-03
1.585185000000000023e-03
1.480032000000000049e-03
1.364252999999999950e-03
1.301747000000000017e-03
1.308094000000000097e-03
1.304487999999999915e-03
1.253184999999999976e-03
1.207603999999999926e-03
1.244866999999999979e-03
1.266647999999999993e-03
1.237367000000000068e-03
1.192892000000000084e-03
1.227222000000000035e-03
1.250011999999999998e-03
1.229145000000000064e-03
1.187218000000000084e-03
1.211211000000000015e-03
1.256839000000000046e-03
1.219431999999999894e-03
1.205200000000000021e-03
1.225105999999999895e-03
1.247318999999999989e-03
1.233327999999999898e-03
1.190150999999999969e-03
1.201161999999999976e-03
1.244866999999999979e-03
1.237030000000000074e-03
1.202364000000000037e-03
1.198180999999999986e-03
1.241308999999999902e-03
1.255493000000000104e-03
1.200296000000000002e-03
1.171303000000000058e-03
1.227028999999999924e-03
1.251261999999999947e-03
1.227028999999999924e-03
1.207315999999999945e-03
1.239962999999999959e-03
1.239241999999999991e-03
1.214287999999999999e-03
1.172890000000000000e-03
1.203421000000000091e-03
1.240154999999999947e-03
1.226403999999999949e-03
1.180054000000000042e-03
1.190054999999999976e-03
1.226836999999999936e-03
1.218759000000000032e-03
1.164763999999999990e-03
1.161734999999999894e-03
1.199430999999999935e-03
1.202748000000000012e-03
1.158032999999999936e-03
1.155580999999999926e-03
1.200296000000000002e-03
1.206786999999999964e-03
1.148560999999999983e-03
1.116924000000000042e-03
1.158657999999999910e-03
1.197652000000000005e-03
1.173755000000000067e-03
1.144377999999999932e-03
1.161301999999999907e-03
1.212460999999999964e-03
1.188852999999999915e-03
1.146204999999999967e-03
1.166111000000000057e-03
1.208277999999999913e-03
1.186304000000000004e-03
1.153609000000000101e-03
1.192698999999999973e-03
1.252223999999999915e-03
1.261598999999999967e-03
1.215970000000000028e-03
1.235250999999999927e-03
1.315498000000000015e-03
1.324297000000000104e-03
1.269677000000000089e-03
1.257848999999999903e-03
1.300977999999999943e-03
1.321556999999999897e-03
1.306218999999999957e-03
1.295977999999999930e-03
1.341895000000000067e-03
1.368627999999999989e-03
1.333240000000000076e-03
1.303766999999999947e-03
1.332711000000000095e-03
1.365310000000000005e-03
1.324826000000000085e-03
1.310689999999999989e-03
1.333432999999999971e-03
1.368484000000000107e-03
1.339153999999999952e-03
1.307227999999999906e-03
1.311892000000000049e-03
1.368099000000000008e-03
1.350164999999999959e-03
1.297420000000000084e-03
1.309920999999999915e-03
1.348866999999999905e-03
1.356318999999999927e-03
1.315594999999999916e-03
1.319730000000000078e-03
1.359299999999999918e-03
1.363339000000000087e-03
1.313960000000000084e-03
1.287322999999999940e-03
1.334057999999999945e-03
1.368340000000000008e-03
1.325163000000000079e-03
1.302180000000000004e-03
1.338481000000000089e-03
1.363676000000000081e-03
1.334298000000000038e-03
1.310883000000000100e-03
1.347038999999999962e-03
1.369156999999999970e-03
1.322950999999999945e-03
1.294247000000000106e-03
1.344394999999999965e-03
1.376176999999999912e-03
1.351606999999999895e-03
1.320210000000000047e-03
1.338145000000000003e-03
1.377186000000000079e-03
1.376321000000000011e-03
1.325835999999999942e-03
1.340164000000000025e-03
1.392187999999999932e-03
1.392140000000000044e-03
1.350021000000000077e-03
1.347520000000000055e-03
1.375359000000000043e-03
1.377331000000000085e-03
1.361271000000000052e-03
1.334153999999999939e-03
1.367858999999999915e-03
1.413247000000000071e-03
1.384398999999999916e-03
1.353866999999999918e-03
1.372858999999999928e-03
1.412286000000000010e-03
1.404929000000000074e-03
1.358482999999999956e-03
1.395986000000000102e-03
1.427045999999999957e-03
1.409688999999999994e-03
1.369013000000000087e-03
1.373869000000000002e-03
1.427335000000000062e-03
1.422670999999999918e-03
1.372762999999999935e-03
1.360597999999999972e-03
1.416420999999999956e-03
1.432864000000000056e-03
1.397044000000000064e-03
1.372907000000000034e-03
1.429979000000000059e-03
1.443585999999999958e-03
1.401130999999999904e-03
1.375310999999999938e-03
1.410987000000000048e-03
1.452673999999999936e-03
1.435508999999999960e-03
1.403149999999999927e-03
1.414977999999999896e-03
1.454645000000000070e-03
1.440461000000000085e-03
1.390696999999999984e-03
1.410313999999999969e-03
1.441903999999999929e-03
1.447720999999999904e-03
1.417286000000000023e-03
1.415411000000000100e-03
1.453298999999999910e-03
1.442480000000000108e-03
1.399351999999999974e-03
1.399304000000000086e-03
1.459453000000000096e-03
1.475512000000000004e-03
1.419305000000000046e-03
1.394255000000000060e-03
1.438201000000000063e-03
1.478588999999999988e-03
1.453924000000000102e-03
1.408680000000000045e-03
1.431855000000000107e-03
1.432864000000000056e-03
1.391178000000000076e-03
1.365069999999999912e-03
1.372233999999999954e-03
1.403870999999999895e-03
1.368580000000000100e-03
1.301169999999999931e-03
1.308141999999999985e-03
1.344394999999999965e-03
1.322086000000000094e-03
1.286456999999999965e-03
1.315594999999999916e-03
1.372715000000000046e-03
1.372282000000000059e-03
1.357714000000000100e-03
1.384157999999999916e-03
1.433152999999999944e-03
1.447289000000000041e-03
1.433152999999999944e-03
1.433826000000000024e-03
1.491764000000000024e-03
1.515997000000000048e-03
1.483685999999999902e-03
1.457769999999999943e-03
1.507438000000000050e-03
1.540085000000000065e-03
1.510131000000000060e-03
1.466185000000000058e-03
1.489744000000000094e-03
1.523641000000000058e-03
1.518159999999999952e-03
1.484983999999999957e-03
1.493687000000000053e-03
1.529652000000000052e-03
1.501476000000000069e-03
1.458539999999999923e-03
1.446903999999999942e-03
1.471520999999999940e-03
1.428297000000000030e-03
1.404015999999999901e-03
1.440508999999999974e-03
1.417574000000000004e-03
1.302565000000000103e-03
1.172361000000000019e-03
1.192602999999999979e-03
1.486474999999999906e-03
1.714187000000000046e-03
1.785153999999999951e-03
1.756161000000000007e-03
1.845543999999999961e-03
1.880836000000000096e-03
1.825061999999999908e-03
1.719138999999999954e-03
1.667740000000000021e-03
1.649566000000000096e-03
1.578453999999999968e-03
1.506764999999999971e-03
1.494408000000000021e-03
1.511621000000000102e-03
1.485898000000000036e-03
1.447048000000000041e-03
1.437480000000000094e-03
1.490561999999999963e-03
1.478541000000000100e-03
1.414113000000000045e-03
1.430892999999999922e-03
1.469309999999999930e-03
1.457963000000000054e-03
1.427864000000000043e-03
1.413727999999999946e-03
1.462242000000000099e-03
1.472049999999999921e-03
1.417623000000000017e-03
1.390986000000000089e-03
1.424497999999999953e-03
1.450029000000000031e-03
1.429499000000000091e-03
1.422382999999999937e-03
1.433634000000000037e-03
1.458202999999999930e-03
1.434932000000000091e-03
1.408439000000000045e-03
1.427335000000000062e-03
1.454596999999999965e-03
1.453298999999999910e-03
1.416612999999999943e-03
1.411467999999999924e-03
1.431470000000000008e-03
1.427335000000000062e-03
1.383052000000000066e-03
1.382619999999999986e-03
1.425845000000000020e-03
1.431758999999999896e-03
1.391033999999999977e-03
1.372619000000000053e-03
1.400746000000000022e-03
1.410746999999999956e-03
1.377331000000000085e-03
1.358339000000000074e-03
1.391274000000000070e-03
1.404400000000000093e-03
1.372186000000000065e-03
1.329586000000000006e-03
1.363964000000000062e-03
1.382282999999999993e-03
1.367329999999999934e-03
1.332519000000000108e-03
1.350164999999999959e-03
1.383244999999999961e-03
1.347038999999999962e-03
1.314536999999999954e-03
1.336125000000000073e-03
1.366896999999999947e-03
1.363194999999999988e-03
1.331509000000000035e-03
1.308333999999999973e-03
1.370310999999999925e-03
1.387524000000000006e-03
1.334490000000000025e-03
1.317999000000000037e-03
1.372137999999999960e-03
1.398918999999999987e-03
1.373291999999999916e-03
1.357616999999999982e-03
1.405266000000000067e-03
1.452577999999999942e-03
1.424401999999999960e-03
1.384447000000000021e-03
1.410507000000000080e-03
1.454163999999999977e-03
1.442480000000000108e-03
1.417382000000000017e-03
1.419979000000000033e-03
1.479646999999999950e-03
1.468300000000000074e-03
1.413055000000000084e-03
1.430892999999999922e-03
1.514506000000000099e-03
1.507005000000000063e-03
1.455366000000000038e-03
1.453202999999999917e-03
1.486955999999999998e-03
1.466712999999999914e-03
1.430459999999999935e-03
1.432527999999999970e-03
1.471520999999999940e-03
1.491523000000000024e-03
1.432143000000000088e-03
1.400025000000000054e-03
1.448875000000000076e-03
1.482531999999999947e-03
1.451135000000000098e-03
1.416949000000000030e-03
1.443250000000000088e-03
1.467338000000000106e-03
1.448971999999999977e-03
1.411708999999999924e-03
1.435412999999999967e-03
1.459549000000000089e-03
1.433105000000000056e-03
1.392861000000000012e-03
1.412863000000000096e-03
1.451856000000000067e-03
1.457530000000000067e-03
1.389206999999999942e-03
1.396227000000000102e-03
1.439018999999999932e-03
1.455799000000000025e-03
1.404833000000000080e-03
1.398149999999999914e-03
1.434450999999999999e-03
1.437623999999999977e-03
1.400217000000000041e-03
1.396611000000000076e-03
1.442432000000000002e-03
1.466520999999999927e-03
1.416275999999999950e-03
1.379157999999999903e-03
1.422766999999999912e-03
1.453539000000000003e-03
1.425796000000000008e-03
1.401370999999999997e-03
1.442191999999999910e-03
1.475416000000000010e-03
1.444547999999999926e-03
1.396562999999999971e-03
1.406420000000000023e-03
1.452914000000000028e-03
1.435124000000000078e-03
1.387524000000000006e-03
1.417670999999999905e-03
1.468300000000000074e-03
1.481810999999999979e-03
1.418343999999999985e-03
1.401034999999999911e-03
1.436470000000000021e-03
1.450991000000000000e-03
1.422335000000000049e-03
1.407189000000000096e-03
1.434787999999999992e-03
1.459068999999999904e-03
1.427239000000000068e-03
1.386803000000000037e-03
1.420314999999999902e-03
1.451807999999999961e-03
1.416036000000000074e-03
1.401516000000000003e-03
1.434210999999999906e-03
1.467194000000000007e-03
1.442432000000000002e-03
1.401516000000000003e-03
1.415315000000000106e-03
1.461520999999999914e-03
1.457001000000000086e-03
1.401466999999999991e-03
1.409015999999999914e-03
1.451182999999999987e-03
1.449116000000000076e-03
1.414015999999999927e-03
1.401756000000000096e-03
1.444835999999999907e-03
1.476330000000000090e-03
1.437576000000000088e-03
1.403390999999999927e-03
1.434402999999999893e-03
1.427190999999999963e-03
1.406563999999999905e-03
1.385263999999999983e-03
1.429354000000000085e-03
1.455607000000000038e-03
1.431421999999999903e-03
1.392524000000000019e-03
1.409784999999999988e-03
1.449212000000000070e-03
1.428440999999999912e-03
1.385408000000000082e-03
1.414256999999999927e-03
1.457193000000000073e-03
1.443585999999999958e-03
1.398102000000000025e-03
1.380167000000000069e-03
1.415026000000000001e-03
1.411371999999999930e-03
1.357953999999999975e-03
1.337616000000000022e-03
1.367762999999999922e-03
1.369301000000000068e-03
1.319152999999999992e-03
1.283428000000000086e-03
1.296457999999999899e-03
1.290832999999999911e-03
1.259724000000000043e-03
1.259003000000000075e-03
1.302565000000000103e-03
1.349347999999999997e-03
1.341221999999999987e-03
1.323479999999999926e-03
1.369493000000000056e-03
1.417333999999999912e-03
1.400505999999999930e-03
1.376368999999999900e-03
1.406659999999999898e-03
1.468155999999999975e-03
1.446903999999999942e-03
1.428536999999999906e-03
1.437527999999999983e-03
1.472290999999999921e-03
1.461375999999999908e-03
1.426420999999999982e-03
1.421949999999999950e-03
1.467531000000000000e-03
1.488783000000000033e-03
1.443779000000000069e-03
1.413919999999999934e-03
1.435412999999999967e-03
1.464982999999999997e-03
1.435557000000000066e-03
1.403727000000000013e-03
1.421806000000000068e-03
1.396178000000000089e-03
1.334539000000000038e-03
1.315065999999999935e-03
1.328383999999999945e-03
1.287081999999999940e-03
1.168418000000000061e-03
1.044416999999999958e-03
1.182024999999999959e-03
1.517630999999999971e-03
1.738900000000000038e-03
1.768374000000000074e-03
1.777989999999999909e-03
1.844678999999999893e-03
1.838524000000000018e-03
1.742506999999999910e-03
1.613985999999999980e-03
1.596196000000000030e-03
1.552346000000000021e-03
1.468059999999999981e-03
1.415267000000000001e-03
1.431278000000000021e-03
1.426806000000000081e-03
1.387860999999999999e-03
1.363676000000000081e-03
1.405072999999999956e-03
1.416516999999999950e-03
1.377715000000000059e-03
1.348625999999999905e-03
1.377235000000000091e-03
1.416565000000000055e-03
1.381995000000000012e-03
1.323046999999999938e-03
1.335980999999999974e-03
1.398631000000000006e-03
1.392428000000000025e-03
1.344972000000000051e-03
1.350068999999999965e-03
1.389398999999999929e-03
1.368627999999999989e-03
1.346654999999999987e-03
1.337230999999999923e-03
1.349202999999999991e-03
1.379493999999999989e-03
1.347424000000000061e-03
1.305497999999999988e-03
1.342759999999999917e-03
1.373724999999999903e-03
1.341125999999999993e-03
1.312325000000000037e-03
1.331125000000000060e-03
1.337712000000000016e-03
1.316845000000000081e-03
1.295399999999999937e-03
1.308333999999999973e-03
1.346173999999999895e-03
1.335741000000000098e-03
1.280302999999999997e-03
1.295544999999999943e-03
1.329971000000000105e-03
1.293958000000000001e-03
1.252608000000000107e-03
1.264195999999999983e-03
1.305113000000000106e-03
1.294343000000000099e-03
1.265398000000000044e-03
1.238856999999999892e-03
1.268283000000000041e-03
1.273716000000000041e-03
1.223663000000000051e-03
1.215682000000000047e-03
1.255830000000000097e-03
1.256069999999999973e-03
1.211643000000000095e-03
1.203132999999999894e-03
1.234049000000000083e-03
1.264244000000000088e-03
1.256406999999999967e-03
1.209238999999999974e-03
1.221691999999999917e-03
1.250540999999999979e-03
1.235107000000000045e-03
1.206114000000000101e-03
1.238953000000000103e-03
1.279870000000000009e-03
1.282996000000000006e-03
1.257609000000000027e-03
1.266937000000000098e-03
1.311843999999999944e-03
1.339972000000000038e-03
1.311075000000000088e-03
1.288957999999999987e-03
1.317084999999999957e-03
1.336654000000000054e-03
1.319632999999999961e-03
1.302708999999999985e-03
1.332375000000000009e-03
1.373724999999999903e-03
1.337999999999999997e-03
1.311314999999999963e-03
1.359395999999999912e-03
1.381658000000000018e-03
1.331509000000000035e-03
1.312997999999999900e-03
1.347375999999999956e-03
1.369397000000000062e-03
1.351944000000000106e-03
1.316508000000000088e-03
1.318528000000000018e-03
1.340164000000000025e-03
1.331558000000000047e-03
1.301602999999999918e-03
1.321315999999999897e-03
1.355983000000000058e-03
1.350597999999999946e-03
1.308286000000000084e-03
1.304487999999999915e-03
1.338769999999999977e-03
1.329008999999999920e-03
1.298813999999999915e-03
1.275061999999999984e-03
1.330306999999999974e-03
1.335980999999999974e-03
1.285831999999999991e-03
1.257513000000000034e-03
1.283092000000000000e-03
1.308237999999999979e-03
1.296987000000000096e-03
1.277130000000000019e-03
1.297804999999999966e-03
1.315931000000000002e-03
1.307757000000000103e-03
1.260686000000000011e-03
1.270398000000000057e-03
1.331701999999999929e-03
1.311267000000000075e-03
1.261310999999999986e-03
1.267033000000000091e-03
1.309391999999999934e-03
1.310208999999999896e-03
1.286697999999999965e-03
1.287081999999999940e-03
1.319489000000000078e-03
1.324777999999999980e-03
1.289582999999999962e-03
1.278042999999999974e-03
1.294872000000000080e-03
1.312276999999999931e-03
1.289966999999999937e-03
1.276985000000000012e-03
1.308527000000000084e-03
1.334057999999999945e-03
1.296218000000000023e-03
1.271264000000000031e-03
1.305881999999999963e-03
1.338673000000000076e-03
1.312758000000000024e-03
1.266070999999999907e-03
1.276264000000000044e-03
1.323238999999999926e-03
1.291168999999999997e-03
1.260012999999999932e-03
1.291891000000000090e-03
1.331750000000000034e-03
1.321412000000000107e-03
1.276985000000000012e-03
1.269004000000000009e-03
1.305977999999999957e-03
1.324777999999999980e-03
1.296410000000000010e-03
1.278283999999999974e-03
1.310449999999999896e-03
1.309248000000000052e-03
1.268089999999999929e-03
1.250877000000000065e-03
1.298813999999999915e-03
1.326460999999999916e-03
1.295832999999999924e-03
1.258521999999999983e-03
1.303190000000000077e-03
1.329971000000000105e-03
1.316651999999999970e-03
1.267609999999999961e-03
1.271456000000000018e-03
1.306602999999999931e-03
1.313864000000000091e-03
1.273042999999999961e-03
1.280494999999999984e-03
1.322854999999999951e-03
1.304007000000000039e-03
1.256310999999999973e-03
1.262272999999999954e-03
1.310016999999999909e-03
1.300544999999999956e-03
1.257464999999999928e-03
1.250252000000000091e-03
1.283187999999999994e-03
1.304583999999999909e-03
1.288861999999999994e-03
1.253088999999999982e-03
1.283812999999999968e-03
1.293525000000000013e-03
1.258762999999999983e-03
1.251357999999999941e-03
1.279821999999999904e-03
1.319152999999999992e-03
1.290303999999999930e-03
1.232126000000000055e-03
1.259242999999999951e-03
1.317709999999999932e-03
1.301506999999999924e-03
1.254820000000000024e-03
1.265831000000000031e-03
1.315643000000000021e-03
1.301314000000000030e-03
1.254628000000000037e-03
1.253858000000000056e-03
1.289774999999999949e-03
1.304199000000000027e-03
1.264244000000000088e-03
1.224768999999999901e-03
1.236068000000000106e-03
1.250493000000000091e-03
1.211258999999999903e-03
1.168851000000000048e-03
1.196978000000000018e-03
1.204479000000000053e-03
1.173130000000000093e-03
1.141253000000000059e-03
1.148801000000000076e-03
1.162311999999999981e-03
1.141012000000000059e-03
1.129713000000000071e-03
1.146925999999999935e-03
1.204095000000000078e-03
1.233184000000000016e-03
1.202219000000000031e-03
1.217556999999999971e-03
1.286842000000000064e-03
1.286072999999999990e-03
1.251839000000000033e-03
1.271456000000000018e-03
1.317566000000000050e-03
1.319873999999999960e-03
1.275061999999999984e-03
1.274725999999999897e-03
1.332999999999999984e-03
1.345789999999999920e-03
1.327999000000000063e-03
1.298813999999999915e-03
1.312805999999999912e-03
1.326172000000000028e-03
1.285735999999999997e-03
1.269004000000000009e-03
1.292371000000000058e-03
1.327470999999999990e-03
1.327903000000000069e-03
1.273571999999999942e-03
1.242079000000000100e-03
1.224866000000000019e-03
1.216403000000000015e-03
1.190920000000000043e-03
1.155292000000000038e-03
1.096249000000000095e-03
9.988364000000000444e-04
9.308017000000000027e-04
1.144859000000000024e-03
1.501235999999999977e-03
1.656537999999999934e-03
1.617736000000000044e-03
1.666923000000000059e-03
1.724138999999999967e-03
1.697743000000000039e-03
1.568020000000000047e-03
1.459404999999999990e-03
1.444404000000000044e-03
1.416565000000000055e-03
1.348000999999999930e-03
1.288525000000000000e-03
1.307853000000000097e-03
1.323624000000000024e-03
1.302227999999999893e-03
1.244962999999999972e-03
1.282467000000000025e-03
1.316026999999999995e-03
1.290160000000000048e-03
1.252896999999999995e-03
1.258282000000000107e-03
1.302804999999999979e-03
1.292420000000000070e-03
1.247992999999999976e-03
1.232943000000000016e-03
1.272033000000000105e-03
1.283573000000000092e-03
1.251743000000000040e-03
1.241261000000000014e-03
1.271023000000000031e-03
1.285591999999999898e-03
1.246694000000000014e-03
1.220249999999999981e-03
1.255636999999999986e-03
1.290448000000000029e-03
1.264916999999999951e-03
1.242414999999999969e-03
1.273908000000000028e-03
1.296651000000000010e-03
1.253329999999999982e-03
1.234817999999999940e-03
1.230731000000000099e-03
1.262656999999999929e-03
1.259869000000000050e-03
1.195777000000000081e-03
1.210729999999999923e-03
1.270590999999999951e-03
1.247992999999999976e-03
1.199334999999999941e-03
1.195199999999999995e-03
1.237414999999999956e-03
1.251214000000000059e-03
1.213902999999999901e-03
1.187026000000000097e-03
1.217556999999999971e-03
1.233567999999999991e-03
1.196882000000000024e-03
1.165725999999999958e-03
1.188468000000000033e-03
1.197506999999999999e-03
1.166928000000000019e-03
1.134328999999999893e-03
1.174813000000000029e-03
1.209528000000000079e-03
1.190246999999999963e-03
1.144714000000000018e-03
1.172985999999999994e-03
1.218085999999999952e-03
1.203805999999999973e-03
1.163465999999999936e-03
1.170582000000000089e-03
1.199189999999999935e-03
1.196498000000000049e-03
1.169619999999999905e-03
1.174476999999999943e-03
1.221258999999999930e-03
1.230778999999999988e-03
1.217846000000000076e-03
1.220874999999999955e-03
1.268667000000000015e-03
1.296891000000000103e-03
1.271648000000000006e-03
1.244242000000000004e-03
1.278138999999999968e-03
1.311604000000000068e-03
1.288765000000000093e-03
1.261359000000000091e-03
1.295207999999999950e-03
1.334441999999999920e-03
1.306267000000000062e-03
1.285544000000000010e-03
1.316363999999999989e-03
1.361126999999999953e-03
1.345260999999999939e-03
1.291938999999999978e-03
1.300544999999999956e-03
1.334827000000000019e-03
1.347904999999999937e-03
1.312950000000000011e-03
1.280831999999999977e-03
1.314295999999999954e-03
1.307901999999999893e-03
1.276360000000000038e-03
1.272899000000000079e-03
1.324538000000000104e-03
1.348819000000000016e-03
1.295303999999999943e-03
1.274149000000000028e-03
1.314681000000000053e-03
1.336701999999999942e-03
1.306410999999999944e-03
1.265398000000000044e-03
1.294294999999999994e-03
1.327182000000000101e-03
1.301363000000000042e-03
1.279004999999999942e-03
1.320643000000000034e-03
1.346750999999999981e-03
1.299486999999999995e-03
1.253088999999999982e-03
1.270543000000000063e-03
1.304728000000000008e-03
1.314344000000000059e-03
1.283765000000000080e-03
1.285015000000000029e-03
1.321845000000000095e-03
1.328287999999999951e-03
1.290928999999999905e-03
1.266551999999999999e-03
1.302227999999999893e-03
1.329537999999999900e-03
1.302084000000000010e-03
1.285591999999999898e-03
1.320210000000000047e-03
1.348241999999999930e-03
1.318383000000000011e-03
1.293429000000000020e-03
1.325498999999999948e-03
1.364589000000000036e-03
1.327421999999999977e-03
1.301073999999999937e-03
1.316892999999999970e-03
1.354876999999999991e-03
1.331221000000000054e-03
1.277899000000000092e-03
1.283812999999999968e-03
1.338624999999999971e-03
1.359781000000000011e-03
1.306843999999999931e-03
1.310738000000000094e-03
1.355742000000000058e-03
1.356175000000000045e-03
1.315594999999999916e-03
1.312180999999999938e-03
1.363386999999999976e-03
1.377619000000000066e-03
