1.000400e+01 5.648018e-01 -5.648017e-01 5.351902e-05 1.095414e-05
1.000800e+01 -5.042019e-01 5.042020e-01 7.443244e-05 -1.037526e-05
1.001200e+01 -5.217850e-01 5.217851e-01 5.132575e-05 -1.036851e-05
1.001600e+01 -5.372049e-01 5.372049e-01 1.527534e-05 -2.202256e-05
1.002000e+01 -5.505563e-01 5.505564e-01 1.755857e-05 -1.813535e-07
1.002400e+01 -5.619928e-01 5.619928e-01 3.239814e-06 4.970058e-06
1.002800e+01 -5.717124e-01 5.717124e-01 1.044659e-05 -2.292411e-06
1.003200e+01 -5.799290e-01 5.799290e-01 4.310150e-05 -5.278602e-06
1.003600e+01 5.868505e-01 -5.868505e-01 5.793009e-05 8.551177e-06
1.004000e+01 5.154217e-01 -5.154217e-01 2.512165e-05 6.570205e-06
1.004400e+01 -4.402825e-01 4.402825e-01 1.096344e-05 1.814171e-05
1.004800e+01 -4.634437e-01 4.634437e-01 3.677278e-07 2.549183e-05
1.005200e+01 -4.843056e-01 4.843056e-01 2.067392e-05 -1.523049e-05
1.005600e+01 -5.028202e-01 5.028202e-01 4.531513e-06 -4.240510e-05
1.006000e+01 -5.190772e-01 5.190772e-01 1.369733e-05 -1.502271e-05
1.006400e+01 -5.332448e-01 5.332449e-01 9.541296e-05 3.386469e-05
1.006800e+01 -5.455277e-01 5.455277e-01 8.341756e-05 3.339665e-05
1.007200e+01 5.561385e-01 -5.561384e-01 3.186624e-05 -1.346669e-06
1.007600e+01 4.759394e-01 -4.759394e-01 3.691887e-06 -2.100616e-05
1.008000e+01 3.898027e-01 -3.898027e-01 -3.124978e-06 -2.861496e-05
1.008400e+01 3.006397e-01 -3.006397e-01 -3.347846e-06 -1.967090e-05
1.008800e+01 2.118418e-01 -2.118418e-01 6.171200e-05 3.128440e-05
1.009200e+01 -1.266076e-01 1.266077e-01 6.660454e-05 4.369408e-05
1.009600e+01 -1.880713e-01 1.880713e-01 4.329732e-05 1.328717e-05
1.010000e+01 -2.446836e-01 2.446836e-01 4.508748e-05 -1.372463e-06
1.010400e+01 -2.957834e-01 2.957835e-01 6.317695e-05 1.157427e-05
1.010800e+01 -3.411194e-01 3.411195e-01 3.553286e-05 -6.113019e-06
1.011200e+01 3.808029e-01 -3.808028e-01 4.798235e-05 -3.426399e-05
1.011600e+01 -2.888546e-01 2.888547e-01 8.141471e-05 -1.434542e-05
1.012000e+01 -3.358108e-01 3.358108e-01 6.199122e-05 -2.432916e-07
1.012400e+01 3.767144e-01 -3.767144e-01 6.137733e-05 4.946808e-06
1.012800e+01 -2.835407e-01 2.835408e-01 4.966741e-05 7.239821e-06
1.013200e+01 3.318254e-01 -3.318254e-01 2.862384e-05 5.317836e-06
1.013600e+01 -2.375752e-01 2.375752e-01 4.169533e-05 1.712930e-05
1.014000e+01 2.920701e-01 -2.920701e-01 5.405297e-05 2.011009e-05
1.014400e+01 -1.975395e-01 1.975396e-01 8.274985e-05 2.631958e-05
1.014800e+01 -2.571616e-01 2.571617e-01 8.102223e-05 1.984870e-05
1.015200e+01 -3.095591e-01 3.095591e-01 6.880090e-05 1.521845e-05
1.015600e+01 3.550084e-01 -3.550083e-01 5.680923e-05 9.420741e-06
1.016000e+01 -2.594918e-01 2.594918e-01 3.555265e-05 -1.734322e-05
1.016400e+01 3.120660e-01 -3.120660e-01 4.004541e-05 -1.224351e-05
1.016800e+01 -2.157904e-01 2.157905e-01 6.736927e-05 1.296820e-05
1.017200e+01 -2.742853e-01 2.742853e-01 7.314062e-05 1.323315e-06
1.017600e+01 3.251697e-01 -3.251696e-01 8.560288e-05 -9.801718e-06
1.018000e+01 -2.283156e-01 2.283157e-01 1.070289e-04 -7.025227e-06
1.018400e+01 -2.856024e-01 2.856025e-01 6.296497e-05 -4.880463e-08
1.018800e+01 -3.351969e-01 3.351969e-01 1.522479e-05 -1.187614e-05
1.019200e+01 3.776977e-01 -3.776976e-01 5.642103e-05 -5.424425e-06
1.019600e+01 -2.809561e-01 2.809562e-01 8.501318e-05 -6.572643e-06
1.020000e+01 -3.315642e-01 3.315642e-01 4.866168e-05 -1.786452e-05
1.020400e+01 -3.748539e-01 3.748539e-01 5.791642e-05 -1.090166e-05
1.020800e+01 -4.116397e-01 4.116397e-01 5.648008e-05 9.183298e-06
1.021200e+01 4.427806e-01 -4.427806e-01 6.002028e-05 4.166200e-06
1.021600e+01 -3.480061e-01 3.480062e-01 7.385953e-05 -6.210410e-06
1.022000e+01 -3.891838e-01 3.891839e-01 7.104175e-05 -1.635542e-05
1.022400e+01 4.240149e-01 -4.240148e-01 4.600438e-05 -1.834063e-05
1.022800e+01 -3.275947e-01 3.275947e-01 5.252928e-05 -2.422650e-06
1.023200e+01 -3.721493e-01 3.721494e-01 7.758450e-05 5.471903e-06
1.023600e+01 -4.098222e-01 4.098223e-01 9.336777e-05 2.232661e-05
1.024000e+01 -4.415734e-01 4.415735e-01 8.313215e-05 2.208453e-05
1.024400e+01 -4.683039e-01 4.683040e-01 7.737460e-05 2.600209e-05
1.024800e+01 -4.908149e-01 4.908149e-01 5.516217e-05 2.613790e-06
1.025200e+01 -5.097957e-01 5.097958e-01 2.075810e-05 -2.657708e-05
1.025600e+01 -5.258281e-01 5.258281e-01 4.398928e-05 -8.121466e-07
1.026000e+01 -5.393973e-01 5.393974e-01 5.198222e-05 -1.044097e-05
1.026400e+01 5.509059e-01 -5.509058e-01 1.010784e-04 -2.289248e-05
1.026800e+01 4.638800e-01 -4.638798e-01 1.688250e-04 2.558298e-05
1.027200e+01 3.680921e-01 -3.680920e-01 9.379414e-05 2.420745e-05
1.027600e+01 -2.665949e-01 2.665949e-01 -2.520086e-06 -2.125019e-05
1.028000e+01 -3.217555e-01 3.217555e-01 -3.658539e-05 -3.689770e-05
1.028400e+01 -3.683183e-01 3.683183e-01 2.135077e-06 -2.069493e-05
1.028800e+01 -4.073918e-01 4.073918e-01 3.375945e-05 6.403413e-06
1.029200e+01 -4.400956e-01 4.400956e-01 4.791505e-05 5.393423e-06
1.029600e+01 -4.674590e-01 4.674590e-01 1.685483e-05 -7.982177e-06
1.030000e+01 -4.903799e-01 4.903798e-01 -1.160824e-05 1.662349e-06
1.030400e+01 -5.096176e-01 5.096175e-01 -4.946379e-05 2.029430e-06
1.030800e+01 -5.258032e-01 5.258031e-01 -5.063466e-05 1.282456e-05
1.031200e+01 5.394563e-01 -5.394564e-01 -8.106871e-06 2.870726e-05
1.031600e+01 4.501835e-01 -4.501835e-01 7.654587e-06 -4.615429e-06
1.032000e+01 3.521231e-01 -3.521231e-01 -1.699604e-05 -3.029357e-05
1.032400e+01 2.485808e-01 -2.485807e-01 4.037289e-05 1.274944e-06
1.032800e+01 -1.439430e-01 1.439431e-01 7.145238e-05 2.067967e-05
1.033200e+01 2.177267e-01 -2.177267e-01 4.400422e-05 5.098805e-06
1.033600e+01 1.136731e-01 -1.136731e-01 2.443866e-05 -2.142663e-05
1.034000e+01 1.439483e-02 -1.439482e-02 7.533155e-06 -3.638880e-05
1.034400e+01 7.659747e-02 -7.659747e-02 -9.744861e-07 -1.661008e-05
1.034800e+01 -1.912626e-02 1.912632e-02 5.053942e-05 1.642840e-06
1.035200e+01 1.071087e-01 -1.071086e-01 9.504949e-05 1.063597e-05
1.035600e+01 8.521962e-03 -8.521845e-03 1.168758e-04 7.006461e-06
1.036000e+01 -8.163162e-02 8.163178e-02 1.561312e-04 2.082722e-05
1.036400e+01 1.614356e-01 -1.614354e-01 1.528137e-04 3.147992e-05
1.036800e+01 6.217246e-02 -6.217240e-02 6.272198e-05 -1.106311e-05
1.037200e+01 3.210776e-02 -3.210772e-02 3.835827e-05 -3.367825e-05
1.037600e+01 -5.997147e-02 5.997156e-02 9.013327e-05 -6.078257e-06
1.038000e+01 -1.420907e-01 1.420908e-01 1.575078e-04 2.523540e-05
1.038400e+01 -2.134346e-01 2.134348e-01 1.651469e-04 2.430936e-05
1.038800e+01 2.742861e-01 -2.742860e-01 1.016332e-04 -9.361434e-06
1.039200e+01 1.752250e-01 -1.752249e-01 8.090767e-05 -1.281958e-05
1.039600e+01 7.662197e-02 -7.662185e-02 1.150745e-04 1.493170e-05
1.040000e+01 1.770018e-02 -1.770006e-02 1.227043e-04 1.264111e-05
1.040400e+01 -7.217331e-02 7.217342e-02 1.116674e-04 -9.922860e-07
1.040800e+01 1.519931e-01 -1.519930e-01 1.098191e-04 -8.108827e-06
1.041200e+01 5.452894e-02 -5.452885e-02 8.554887e-05 -5.940848e-06
1.041600e+01 -3.793514e-02 3.793519e-02 4.515513e-05 -1.090811e-05
1.042000e+01 1.225865e-01 -1.225864e-01 4.950423e-05 -1.454494e-06
1.042400e+01 2.464447e-02 -2.464440e-02 6.361028e-05 2.298699e-05
1.042800e+01 -6.541300e-02 6.541300e-02 -9.815030e-07 1.920311e-05
1.043200e+01 1.455866e-01 -1.455866e-01 -4.880491e-05 -3.825341e-05
1.043600e+01 -4.891693e-02 4.891690e-02 -3.661077e-05 -3.574853e-05
1.044000e+01 1.308095e-01 -1.308096e-01 -9.057171e-05 2.052737e-05
1.044400e+01 3.496055e-02 -3.496077e-02 -2.236834e-04 2.606835e-05
1.044800e+01 -5.536494e-02 5.536455e-02 -3.880001e-04 -1.630182e-05
1.045200e+01 1.376407e-01 -1.376411e-01 -3.581327e-04 2.132068e-05
1.045600e+01 3.949010e-02 -3.949018e-02 -7.967550e-05 4.295161e-05
1.046000e+01 5.124281e-02 -5.124261e-02 1.943152e-04 9.148937e-06
1.046400e+01 -3.999429e-02 3.999461e-02 3.146195e-04 -1.224728e-05
1.046800e+01 -1.235999e-01 1.236003e-01 3.755086e-04 3.932521e-06
1.047200e+01 1.980095e-01 -1.980090e-01 4.749032e-04 -1.549761e-06
1.047600e+01 9.725457e-02 -9.725413e-02 4.462219e-04 -1.411856e-05
1.048000e+01 1.993775e-03 -1.993378e-03 3.969414e-04 1.175920e-05
1.048400e+01 8.484461e-02 -8.484423e-02 3.845376e-04 3.341487e-05
1.048800e+01 -8.156181e-03 8.156444e-03 2.632611e-04 -1.917145e-05
1.049200e+01 9.442331e-02 -9.442315e-02 1.672099e-04 -2.252941e-05
1.049600e+01 -3.079821e-04 3.081571e-04 1.750715e-04 3.545408e-05
1.050000e+01 8.658504e-02 -8.658487e-02 1.699448e-04 3.395450e-05
1.050400e+01 -6.140967e-03 6.141080e-03 1.123338e-04 -1.690051e-05
1.050800e+01 9.227120e-02 -9.227111e-02 8.345287e-05 -2.981297e-05
1.051200e+01 -1.967980e-03 1.968047e-03 6.653329e-05 -7.725285e-06
1.051600e+01 -8.773870e-02 8.773873e-02 2.799345e-05 1.314662e-05
1.052000e+01 1.635817e-01 -1.635816e-01 3.709783e-05 2.616505e-05
1.052400e+01 -6.841002e-02 6.841008e-02 5.775117e-05 8.999231e-07
1.052800e+01 1.457713e-01 -1.457712e-01 5.733955e-05 -5.155552e-06
1.053200e+01 5.296248e-02 -5.296241e-02 6.432947e-05 -3.120831e-06
1.053600e+01 3.681871e-02 -3.681868e-02 3.581417e-05 -2.105402e-05
1.054000e+01 -5.198468e-02 5.198474e-02 6.181305e-05 7.398695e-07
1.054400e+01 1.314041e-01 -1.314040e-01 6.712518e-05 2.198787e-05
1.054800e+01 3.810126e-02 -3.810118e-02 7.716870e-05 3.044493e-05
1.055200e+01 5.020255e-02 -5.020248e-02 6.673251e-05 2.381910e-05
1.055600e+01 3.933524e-02 -3.933521e-02 3.588050e-05 9.355645e-06
1.056000e+01 -4.886864e-02 4.886862e-02 -1.592168e-05 -1.498245e-05
1.056400e+01 -1.297738e-01 1.297737e-01 -3.490060e-05 -2.367823e-05
1.056800e+01 2.019887e-01 -2.019887e-01 2.654421e-05 5.348029e-06
1.057200e+01 -1.030260e-01 1.030261e-01 5.463609e-05 1.554371e-05
1.057600e+01 1.783354e-01 -1.783354e-01 1.102168e-05 -2.444175e-05
1.058000e+01 8.031864e-02 -8.031863e-02 6.479615e-06 -3.445258e-05
1.058400e+01 1.158307e-02 -1.158303e-02 3.637218e-05 -4.507077e-06
1.058800e+01 -7.449592e-02 7.449598e-02 5.946015e-05 7.420699e-06
1.059200e+01 1.527516e-01 -1.527516e-01 6.794492e-05 1.580375e-05
1.059600e+01 5.616241e-02 -5.616237e-02 4.077224e-05 2.939717e-05
1.060000e+01 -3.356952e-02 3.356956e-02 3.637750e-05 1.663607e-05
1.060400e+01 1.143172e-01 -1.143172e-01 2.363398e-05 -2.427313e-05
1.060800e+01 -2.253436e-02 2.253439e-02 3.169948e-05 -1.261904e-05
1.061200e+01 -1.041955e-01 1.041955e-01 1.599652e-05 -1.040569e-05
1.061600e+01 1.757654e-01 -1.757654e-01 2.604873e-05 -2.249938e-05
1.062000e+01 -8.354564e-02 8.354569e-02 5.176267e-05 1.024650e-06
1.062400e+01 -1.576461e-01 1.576462e-01 2.430100e-05 -7.168606e-06
1.062800e+01 2.219188e-01 -2.219188e-01 -1.130682e-05 -2.187024e-05
1.063200e+01 1.294531e-01 -1.294531e-01 -1.415122e-05 -1.706518e-05
1.063600e+01 3.870052e-02 -3.870050e-02 1.649310e-05 1.327259e-08
1.064000e+01 -4.749975e-02 4.749974e-02 -1.002086e-05 -8.319293e-06
1.064400e+01 1.269336e-01 -1.269337e-01 -4.337470e-05 -3.145495e-05
1.064800e+01 3.357241e-02 -3.357241e-02 5.863498e-06 -2.663223e-05
1.065200e+01 -5.230076e-02 5.230078e-02 1.589934e-05 -1.061681e-06
1.065600e+01 -1.288311e-01 1.288311e-01 -3.806032e-05 -3.067795e-06
1.066000e+01 1.957860e-01 -1.957860e-01 -5.259382e-05 -4.571711e-06
1.066400e+01 -1.048916e-01 1.048916e-01 -1.735648e-05 1.922085e-05
1.066800e+01 -1.745489e-01 1.745489e-01 1.162869e-06 1.015153e-05
1.067200e+01 2.341939e-01 -2.341940e-01 -5.675663e-05 -3.982993e-05
1.067600e+01 1.455158e-01 -1.455159e-01 -1.027724e-04 -6.088032e-05
1.068000e+01 -5.668543e-02 5.668532e-02 -1.147557e-04 -4.087447e-05
1.068400e+01 -1.312325e-01 1.312323e-01 -1.117285e-04 -1.629054e-05
1.068800e+01 -1.962561e-01 1.962560e-01 -9.633038e-05 1.261565e-06
1.069200e+01 2.520449e-01 -2.520449e-01 -5.909007e-05 3.050274e-05
1.069600e+01 1.647953e-01 -1.647954e-01 -6.144091e-05 2.855293e-05
1.070000e+01 7.748983e-02 -7.748995e-02 -1.204011e-04 -3.256356e-06
1.070400e+01 -7.256331e-03 7.256200e-03 -1.308872e-04 -1.946052e-06
1.070800e+01 8.712801e-02 -8.712812e-02 -1.105028e-04 3.227087e-05
1.071200e+01 -2.871659e-04 2.870285e-04 -1.374718e-04 1.802959e-05
1.071600e+01 -7.945787e-02 7.945770e-02 -1.661691e-04 8.458752e-06
1.072000e+01 1.489563e-01 -1.489565e-01 -1.437933e-04 2.604679e-05
1.072400e+01 6.411429e-02 -6.411441e-02 -1.246071e-04 2.598700e-05
1.072800e+01 -1.909072e-02 1.909060e-02 -1.181481e-04 3.555397e-07
1.073200e+01 -9.737543e-02 9.737531e-02 -1.184465e-04 -2.139040e-05
1.073600e+01 -1.691137e-01 1.691135e-01 -1.470597e-04 -4.856828e-05
1.074000e+01 -2.333671e-01 2.333670e-01 -1.345786e-04 -3.123573e-05
1.074400e+01 -2.898484e-01 2.898484e-01 -8.808814e-05 -9.652404e-06
1.074800e+01 -3.387874e-01 3.387873e-01 -5.471731e-05 1.853230e-05
1.075200e+01 -3.807542e-01 3.807541e-01 -6.129068e-05 2.945874e-05
1.075600e+01 -4.164955e-01 4.164955e-01 -1.929181e-05 3.462601e-05
1.076000e+01 -4.468104e-01 4.468104e-01 2.307760e-05 1.817360e-05
1.076400e+01 4.724712e-01 -4.724711e-01 2.045236e-05 -2.166443e-06
1.076800e+01 3.798894e-01 -3.798894e-01 2.481770e-05 4.027438e-07
1.077200e+01 -2.821961e-01 2.821962e-01 7.676269e-05 4.174662e-05
1.077600e+01 -3.331910e-01 3.331910e-01 9.473682e-05 2.517356e-05
1.078000e+01 -3.766688e-01 3.766689e-01 6.622923e-05 -1.147373e-05
1.078400e+01 -4.135027e-01 4.135028e-01 9.125997e-05 -1.012351e-06
1.078800e+01 -4.445998e-01 4.446000e-01 1.611800e-04 1.899495e-05
1.079200e+01 4.708181e-01 -4.708179e-01 1.792095e-04 4.008807e-05
1.079600e+01 3.770846e-01 -3.770845e-01 1.435978e-04 3.801265e-05
1.080000e+01 -2.779461e-01 2.779462e-01 1.266316e-04 3.417486e-05
1.080400e+01 3.302879e-01 -3.302878e-01 1.096283e-04 -1.681193e-05
1.080800e+01 -2.297359e-01 2.297359e-01 5.178238e-05 -9.004346e-05
1.081200e+01 -2.891639e-01 2.891640e-01 6.674796e-05 -7.925229e-05
1.081600e+01 -3.399553e-01 3.399555e-01 1.868073e-04 2.022868e-05
1.082000e+01 -3.829763e-01 3.829765e-01 2.592827e-04 5.731050e-05
1.082400e+01 -4.192254e-01 4.192256e-01 1.602571e-04 1.851949e-06
1.082800e+01 -4.496946e-01 4.496948e-01 1.286043e-04 -2.076534e-06
1.083200e+01 4.752941e-01 -4.752939e-01 1.511988e-04 2.009202e-05
1.083600e+01 3.809508e-01 -3.809506e-01 1.571194e-04 2.714019e-06
1.084000e+01 -2.806921e-01 2.806923e-01 1.357986e-04 -3.821471e-05
1.084400e+01 -3.332966e-01 3.332967e-01 1.070108e-04 -4.232676e-05
1.084800e+01 -3.777449e-01 3.777450e-01 1.444986e-04 6.057844e-06
1.085200e+01 4.151014e-01 -4.151012e-01 1.621707e-04 1.543414e-05
1.085600e+01 3.161384e-01 -3.161382e-01 1.617572e-04 -1.465244e-05
1.086000e+01 -2.136349e-01 2.136351e-01 2.133730e-04 2.868173e-05
1.086400e+01 -2.764186e-01 2.764188e-01 2.143124e-04 4.802996e-05
1.086800e+01 3.299273e-01 -3.299271e-01 1.645491e-04 9.335639e-06
1.087200e+01 -2.274953e-01 2.274955e-01 1.393106e-04 -9.399349e-06
1.087600e+01 -2.883820e-01 2.883821e-01 1.298835e-04 7.410137e-06
1.088000e+01 -3.401214e-01 3.401216e-01 1.181954e-04 2.443724e-05
1.088400e+01 3.837089e-01 -3.837088e-01 1.264719e-04 5.893412e-06
1.088800e+01 -2.827302e-01 2.827303e-01 1.179369e-04 -2.581289e-05
1.089200e+01 -3.354604e-01 3.354605e-01 1.005136e-04 -2.870453e-05
1.089600e+01 -3.798781e-01 3.798782e-01 7.391791e-05 -2.010853e-05
1.090000e+01 -4.171101e-01 4.171102e-01 1.085948e-04 7.556726e-06
1.090400e+01 -4.482590e-01 4.482591e-01 1.227098e-04 9.644052e-06
1.090800e+01 4.743218e-01 -4.743217e-01 8.839097e-05 -1.650593e-05
1.091200e+01 -3.787402e-01 3.787403e-01 1.051903e-04 -1.664994e-05
1.091600e+01 -4.162921e-01 4.162921e-01 4.969605e-05 -2.016386e-05
1.092000e+01 4.476706e-01 -4.476706e-01 3.718193e-05 1.541035e-05
1.092400e+01 -3.497072e-01 3.497074e-01 1.614516e-04 7.566811e-05
1.092800e+01 -3.921169e-01 3.921172e-01 2.512883e-04 6.550188e-05
1.093200e+01 -4.275553e-01 4.275555e-01 2.025619e-04 9.849809e-06
1.093600e+01 -4.571404e-01 4.571405e-01 1.264615e-04 -2.631197e-05
1.094000e+01 4.818598e-01 -4.818597e-01 1.015198e-04 -2.135486e-05
1.094400e+01 3.863872e-01 -3.863871e-01 6.080649e-05 -2.999632e-05
1.094800e+01 -2.841611e-01 2.841612e-01 3.560944e-05 -3.674505e-05
1.095200e+01 3.373840e-01 -3.373839e-01 8.548688e-05 1.836209e-05
1.095600e+01 2.332434e-01 -2.332432e-01 1.440939e-04 4.179768e-05
1.096000e+01 -1.286765e-01 1.286767e-01 1.507013e-04 2.269665e-05
1.096400e+01 2.045705e-01 -2.045704e-01 1.170493e-04 -7.469533e-06
1.096800e+01 1.007248e-01 -1.007247e-01 8.987465e-05 -1.447722e-05
1.097200e+01 2.087061e-03 -2.086984e-03 7.681354e-05 -5.915070e-06
1.097600e+01 -8.773472e-02 8.773482e-02 9.744361e-05 -7.625842e-06
1.098000e+01 1.672738e-01 -1.672737e-01 1.321212e-04 -1.053974e-05
1.098400e+01 6.709037e-02 -6.709022e-02 1.509916e-04 -4.334566e-06
1.098800e+01 2.806721e-02 -2.806716e-02 5.717452e-05 -2.441296e-05
1.099200e+01 -6.410465e-02 6.410465e-02 1.531913e-06 -6.593350e-05
1.099600e+01 -1.462334e-01 1.462335e-01 7.118481e-05 -2.912324e-05
1.100000e+01 -2.175340e-01 2.175342e-01 1.649202e-04 1.754895e-05
1.100400e+01 2.783143e-01 -2.783141e-01 1.959902e-04 3.195131e-05
1.100800e+01 -1.781880e-01 1.781882e-01 1.702976e-04 2.417959e-05
1.101200e+01 -2.445564e-01 2.445565e-01 1.486698e-04 2.071114e-05
1.101600e+01 -3.008305e-01 3.008305e-01 9.670617e-05 -3.018401e-05
1.102000e+01 -3.481086e-01 3.481086e-01 5.713719e-05 -4.825810e-05
1.102400e+01 3.876351e-01 -3.876350e-01 8.710883e-05 -1.332663e-05
1.102800e+01 -2.932906e-01 2.932907e-01 1.172472e-04 1.835197e-05
1.103200e+01 -3.412787e-01 3.412789e-01 1.288339e-04 3.454045e-05
1.103600e+01 3.812865e-01 -3.812864e-01 1.139435e-04 5.227879e-06
1.104000e+01 -2.878703e-01 2.878704e-01 7.533828e-05 -5.313745e-05
1.104400e+01 3.362324e-01 -3.362323e-01 1.145370e-04 -2.024337e-05
1.104800e+01 2.410068e-01 -2.410066e-01 1.880179e-04 3.649041e-05
1.105200e+01 1.437237e-01 -1.437235e-01 1.832063e-04 2.808189e-05
1.105600e+01 -4.798018e-02 4.798033e-02 1.432176e-04 1.120571e-05
1.106000e+01 -1.293013e-01 1.293014e-01 7.182302e-05 -1.410474e-05
1.106400e+01 2.002129e-01 -2.002129e-01 2.470933e-06 -4.982012e-05
1.106800e+01 -1.039325e-01 1.039325e-01 2.150604e-05 -3.207655e-05
1.107200e+01 1.778781e-01 -1.778780e-01 1.047534e-04 1.378987e-06
1.107600e+01 8.234984e-02 -8.234964e-02 1.926374e-04 1.237841e-05
1.108000e+01 -9.728179e-03 9.728398e-03 2.190983e-04 1.321587e-05
1.108400e+01 -9.531701e-02 9.531719e-02 1.734467e-04 -1.144132e-06
1.108800e+01 -1.724699e-01 1.724700e-01 9.446446e-05 -2.327501e-05
1.109200e+01 -2.402941e-01 2.402941e-01 6.770681e-05 -5.488460e-06
1.109600e+01 -2.987942e-01 2.987943e-01 9.661393e-05 7.371327e-06
1.110000e+01 -3.485865e-01 3.485866e-01 1.305664e-04 -1.300122e-05
1.110400e+01 3.906126e-01 -3.906125e-01 8.921869e-05 -4.891351e-05
1.110800e+01 2.906205e-01 -2.906204e-01 5.883601e-05 -3.977843e-05
1.111200e+01 1.883320e-01 -1.883319e-01 1.079283e-04 1.247261e-05
1.111600e+01 -8.808710e-02 8.808727e-02 1.675252e-04 6.256798e-05
1.112000e+01 1.664871e-01 -1.664870e-01 1.344943e-04 3.300816e-05
1.112400e+01 6.724485e-02 -6.724475e-02 9.960189e-05 -2.698563e-06
1.112800e+01 -2.546158e-02 2.546168e-02 1.063529e-04 5.724746e-06
1.113200e+01 -1.087341e-01 1.087342e-01 1.202939e-04 9.517537e-06
1.113600e+01 -1.821207e-01 1.821208e-01 1.019842e-04 -1.215358e-05
1.114000e+01 2.453013e-01 -2.453012e-01 2.451896e-05 -3.244799e-05
1.114400e+01 1.495189e-01 -1.495189e-01 2.106338e-05 -1.815111e-05
1.114800e+01 5.496716e-02 -5.496704e-02 1.216267e-04 2.631766e-05
1.115200e+01 3.509330e-02 -3.509313e-02 1.641646e-04 5.240975e-05
1.115600e+01 -5.373639e-02 5.373652e-02 1.264822e-04 2.417925e-05
1.116000e+01 -1.330718e-01 1.330718e-01 8.165824e-05 1.205144e-05
1.116400e+01 2.020437e-01 -2.020436e-01 8.014869e-05 1.382731e-08
1.116800e+01 1.078841e-01 -1.078840e-01 1.239226e-04 -1.586114e-05
1.117200e+01 1.587490e-02 -1.587481e-02 8.684673e-05 -4.262826e-05
1.117600e+01 7.070031e-02 -7.070026e-02 4.760891e-05 -3.902104e-05
1.118000e+01 -2.050557e-02 2.050569e-02 1.170668e-04 2.136244e-05
1.118400e+01 -1.028360e-01 1.028362e-01 1.777171e-04 7.117887e-05
1.118800e+01 1.752344e-01 -1.752342e-01 1.608491e-04 4.849203e-05
1.119200e+01 8.195405e-02 -8.195394e-02 1.137771e-04 -3.892210e-06
1.119600e+01 -8.049954e-03 8.049995e-03 4.081261e-05 -4.191422e-05
1.120000e+01 9.207616e-02 -9.207614e-02 1.942394e-05 -5.553752e-05
1.120400e+01 1.294480e-04 -1.293706e-04 7.746869e-05 -1.650975e-05
1.120800e+01 -8.442947e-02 8.442957e-02 1.007864e-04 7.733250e-06
1.121200e+01 -1.612911e-01 1.612912e-01 9.933353e-05 8.123631e-06
1.121600e+01 2.294234e-01 -2.294233e-01 1.186369e-04 1.617508e-05
1.122000e+01 1.299837e-01 -1.299836e-01 1.204730e-04 3.193208e-05
1.122400e+01 3.512224e-02 -3.512216e-02 8.849114e-05 4.141819e-05
1.122800e+01 -5.216230e-02 5.216240e-02 9.971008e-05 4.770300e-05
1.123200e+01 -1.300850e-01 1.300851e-01 9.345582e-05 2.288956e-05
1.123600e+01 -1.980107e-01 1.980108e-01 8.269421e-05 -1.488537e-05
1.124000e+01 -2.557074e-01 2.557074e-01 7.217409e-05 -3.690744e-05
1.124400e+01 3.037005e-01 -3.037005e-01 5.922169e-05 -2.108502e-05
1.124800e+01 2.167774e-01 -2.167773e-01 7.228701e-05 2.342926e-05
1.125200e+01 -1.268423e-01 1.268424e-01 1.021211e-04 3.202851e-05
1.125600e+01 -1.940582e-01 1.940583e-01 1.003227e-04 -7.703790e-06
1.126000e+01 -2.517242e-01 2.517242e-01 6.430841e-05 -2.137191e-05
1.126400e+01 -3.005997e-01 3.005998e-01 7.235788e-05 -8.410421e-06
1.126800e+01 3.390274e-01 -3.390273e-01 1.108680e-04 -1.751882e-05
1.127200e+01 2.585559e-01 -2.585558e-01 1.064870e-04 -1.544552e-05
1.127600e+01 1.715019e-01 -1.715018e-01 1.169351e-04 1.671181e-05
1.128000e+01 8.339880e-02 -8.339869e-02 1.112294e-04 4.303949e-05
1.128400e+01 2.469404e-03 -2.469325e-03 7.922288e-05 1.594104e-05
1.128800e+01 -7.802753e-02 7.802762e-02 8.458084e-05 -3.660661e-06
1.129200e+01 -1.489694e-01 1.489695e-01 7.725335e-05 -6.399800e-06
1.129600e+01 2.058608e-01 -2.058607e-01 6.356390e-05 -7.157004e-06
1.130000e+01 1.286671e-01 -1.286671e-01 6.388323e-05 1.089189e-05
1.130400e+01 4.248352e-02 -4.248345e-02 7.335003e-05 1.161664e-05
1.130800e+01 -4.051690e-02 4.051696e-02 5.564194e-05 -1.890170e-05
1.131200e+01 1.180989e-01 -1.180988e-01 7.114524e-05 -1.580777e-05
1.131600e+01 2.804485e-02 -2.804476e-02 8.203270e-05 5.292748e-06
1.132000e+01 -5.415011e-02 5.415015e-02 3.551591e-05 -7.866248e-06
1.132400e+01 -1.270194e-01 1.270194e-01 -4.082924e-05 -3.608447e-05
1.132800e+01 -1.901768e-01 1.901768e-01 -2.035584e-05 -6.547891e-06
1.133200e+01 -2.425766e-01 2.425766e-01 3.135829e-05 2.131900e-05
1.133600e+01 2.893136e-01 -2.893135e-01 5.437451e-05 2.580059e-05
1.134000e+01 -2.096119e-01 2.096119e-01 4.723598e-05 2.369006e-05
1.134400e+01 -2.593702e-01 2.593702e-01 4.931092e-05 2.036359e-05
1.134800e+01 -2.992527e-01 2.992527e-01 2.136387e-05 1.335282e-06
1.135200e+01 -3.319856e-01 3.319855e-01 -1.443772e-05 -3.118897e-05
1.135600e+01 1.409172e-01 -1.409172e-01 -5.014606e-06 -1.369636e-05
1.136000e+01 -3.417801e-01 3.417802e-01 6.623646e-05 4.936716e-05
1.136400e+01 -3.386490e-01 3.386490e-01 5.887642e-05 3.873623e-05
1.136800e+01 3.628736e-01 -3.628735e-01 1.872263e-05 2.990218e-06
1.137200e+01 3.372961e-01 -3.372961e-01 -6.567541e-06 -2.914507e-05
1.137600e+01 2.779455e-01 -2.779455e-01 -1.503244e-05 -5.183773e-05
1.138000e+01 -2.103280e-01 2.103280e-01 2.441509e-05 -2.999564e-05
1.138400e+01 -2.525258e-01 2.525259e-01 2.509398e-05 -2.095118e-05
1.138800e+01 -2.847666e-01 2.847666e-01 1.032012e-05 -2.044791e-05
1.139200e+01 3.028700e-01 -3.028699e-01 5.036213e-05 -2.410690e-07
1.139600e+01 2.609634e-01 -2.609633e-01 1.253430e-04 3.066670e-05
1.140000e+01 2.027036e-01 -2.027035e-01 1.350141e-04 1.514379e-05
1.140400e+01 -1.354615e-01 1.354616e-01 1.049443e-04 -1.661414e-05
1.140800e+01 -1.858050e-01 1.858051e-01 8.374782e-05 -2.638764e-05
1.141200e+01 2.262085e-01 -2.262084e-01 7.049176e-05 -2.859249e-05
1.141600e+01 1.657624e-01 -1.657622e-01 1.177424e-04 -2.099298e-06
1.142000e+01 -9.906798e-02 9.906814e-02 1.565642e-04 1.297658e-05
1.142400e+01 1.527085e-01 -1.527084e-01 1.418929e-04 2.071453e-05
1.142800e+01 8.677796e-02 -8.677785e-02 1.112849e-04 1.453266e-05
1.143200e+01 -1.642406e-02 1.642417e-02 1.025144e-04 3.270390e-06
1.143600e+01 -8.216379e-02 8.216389e-02 9.813548e-05 3.487356e-06
1.144000e+01 -1.380683e-01 1.380684e-01 8.330053e-05 1.879456e-05
1.144400e+01 -1.881765e-02 1.881776e-02 1.157159e-04 8.873340e-06
1.144800e+01 1.654154e-01 -1.654153e-01 1.155573e-04 -4.236056e-05
1.145200e+01 -1.416175e-01 1.416176e-01 7.642535e-05 -3.357533e-05
1.145600e+01 -1.879819e-01 1.879819e-01 6.816948e-05 -2.939390e-06
1.146000e+01 2.247432e-01 -2.247431e-01 9.888656e-05 -4.593807e-06
1.146400e+01 1.691794e-01 -1.691793e-01 9.958299e-05 -2.133381e-05
1.146800e+01 1.066344e-01 -1.066343e-01 1.071254e-04 -2.378573e-05
1.147200e+01 -3.985734e-02 3.985745e-02 1.120870e-04 8.395059e-06
1.147600e+01 -9.985997e-02 9.986000e-02 2.993429e-05 -4.380087e-09
1.148000e+01 -1.500901e-01 1.500901e-01 -4.176018e-05 -2.455732e-05
1.148400e+01 -1.901827e-01 1.901827e-01 -2.436157e-05 5.582663e-06
1.148800e+01 1.993965e-01 -1.993965e-01 -1.763645e-05 5.240839e-05
1.149200e+01 1.806761e-01 -1.806763e-01 -1.702865e-04 8.174206e-06
1.149600e+01 -1.293789e-01 1.293786e-01 -3.979963e-04 -8.051972e-05
1.150000e+01 -1.708392e-01 1.708387e-01 -4.976539e-04 -8.638696e-05
1.150400e+01 -2.026400e-01 2.026397e-01 -3.454552e-04 2.509248e-06
1.150800e+01 2.181660e-01 -2.181661e-01 -2.145454e-05 3.940264e-05
1.151200e+01 1.919503e-01 -1.919501e-01 1.607903e-04 4.256950e-06
1.151600e+01 1.452276e-01 -1.452274e-01 2.594456e-04 1.398700e-05
1.152000e+01 -9.001303e-02 9.001341e-02 3.805421e-04 3.874635e-05
1.152400e+01 -1.354842e-01 1.354847e-01 4.741550e-04 3.829208e-05
1.152800e+01 -1.691594e-01 1.691599e-01 4.693907e-04 3.642868e-05
1.153200e+01 1.944038e-01 -1.944033e-01 4.033647e-04 2.180110e-05
1.153600e+01 1.598389e-01 -1.598386e-01 3.153520e-04 2.285853e-05
1.154000e+01 1.127794e-01 -1.127791e-01 2.440146e-04 3.745657e-05
1.154400e+01 5.754718e-02 -5.754701e-02 1.674758e-04 1.702437e-05
1.154800e+01 2.858229e-03 -2.858127e-03 1.018167e-04 -1.921272e-05
1.155200e+01 -5.665606e-02 5.665610e-02 4.874733e-05 -1.790161e-05
1.155600e+01 -1.058462e-01 1.058462e-01 3.230154e-05 -5.571058e-06
1.156000e+01 -1.441654e-01 1.441654e-01 4.198947e-05 -2.848500e-05
1.156400e+01 1.655681e-01 -1.655681e-01 2.372029e-05 -4.241108e-05
1.156800e+01 1.371158e-01 -1.371158e-01 2.562781e-07 -4.375528e-06
1.157200e+01 9.024778e-02 -9.024779e-02 -8.802937e-06 2.644310e-06
1.157600e+01 -3.545322e-02 3.545323e-02 1.020878e-05 -5.093563e-06
1.158000e+01 8.647429e-02 -8.647426e-02 3.036473e-05 -2.465409e-07
1.158400e+01 3.171793e-02 -3.171786e-02 6.155275e-05 1.950704e-05
1.158800e+01 2.787343e-02 -2.787338e-02 4.585415e-05 3.479906e-05
1.159200e+01 -3.363473e-02 3.363471e-02 -2.200222e-05 2.721989e-05
1.159600e+01 8.472657e-02 -8.472660e-02 -2.815648e-05 1.569288e-06
1.160000e+01 3.004961e-02 -3.004962e-02 -8.559244e-06 -2.846842e-06
1.160400e+01 -2.940230e-02 2.940227e-02 -3.072293e-05 -1.588331e-05
1.160800e+01 9.094719e-02 -9.094724e-02 -5.346334e-05 -2.685831e-05
1.161200e+01 2.048965e-02 -2.048965e-02 -3.446410e-06 1.898359e-05
1.161600e+01 -4.014807e-02 4.014810e-02 2.731983e-05 3.741225e-05
1.162000e+01 8.325963e-02 -8.325958e-02 4.948033e-05 2.119926e-05
1.162400e+01 4.233661e-02 -4.233660e-02 8.402470e-06 3.304761e-07
1.162800e+01 -1.727115e-02 1.727112e-02 -3.671794e-05 -1.688659e-05
1.163200e+01 -7.915970e-02 7.915963e-02 -6.671732e-05 -2.432409e-05
1.163600e+01 -1.408975e-01 1.408974e-01 -3.060555e-05 4.564568e-06
1.164000e+01 -2.003598e-01 2.003599e-01 4.401040e-05 4.583945e-05
1.164400e+01 -2.558779e-01 2.558779e-01 3.421816e-06 2.912555e-05
1.164800e+01 -3.063413e-01 3.063412e-01 -5.188542e-05 -2.389900e-05
1.165200e+01 3.512274e-01 -3.512274e-01 -4.573098e-05 -2.152247e-05
1.165600e+01 2.597574e-01 -2.597574e-01 2.278197e-06 -4.680130e-06
1.166000e+01 1.707881e-01 -1.707881e-01 -7.940213e-07 -1.919897e-05
1.166400e+01 8.748616e-02 -8.748615e-02 8.727763e-06 2.852403e-06
1.166800e+01 -1.209152e-02 1.209152e-02 5.366393e-06 2.149860e-05
1.167200e+01 -7.951996e-02 7.951991e-02 -5.080015e-05 1.322967e-05
1.167600e+01 1.449117e-01 -1.449118e-01 -7.334163e-05 1.920414e-05
1.168000e+01 -6.338077e-02 6.338071e-02 -5.255873e-05 3.790048e-06
1.168400e+01 1.297886e-01 -1.297886e-01 -3.220037e-05 -3.864189e-05
1.168800e+01 4.935315e-02 -4.935316e-02 -1.750326e-05 -1.704140e-05
1.169200e+01 2.257396e-02 -2.257395e-02 8.955259e-06 6.262276e-06
1.169600e+01 -4.602299e-02 4.602298e-02 -2.918517e-06 -2.562877e-05
1.170000e+01 1.133543e-01 -1.133543e-01 -2.731306e-05 -3.983253e-05
1.170400e+01 3.429256e-02 -3.429262e-02 -6.674096e-05 -2.773927e-05
1.170800e+01 -3.606005e-02 3.605998e-02 -6.612081e-05 -6.417572e-06
1.171200e+01 9.705292e-02 -9.705299e-02 -6.457078e-05 -1.491297e-05
1.171600e+01 -2.935494e-02 2.935486e-02 -8.634058e-05 -1.801105e-05
1.172000e+01 -9.081149e-02 9.081139e-02 -1.087177e-04 5.892228e-06
1.172400e+01 -1.423660e-01 1.423659e-01 -9.559939e-05 2.886856e-05
1.172800e+01 -1.855861e-01 1.855860e-01 -1.431797e-04 -9.624954e-06
1.173200e+01 -1.886679e-01 1.886678e-01 -1.654858e-04 -2.730516e-05
1.173600e+01 2.392090e-01 -2.392091e-01 -1.156030e-04 -8.476445e-06
1.174000e+01 -1.946854e-01 1.946853e-01 -8.485744e-05 -2.478865e-06
1.174400e+01 -2.212568e-01 2.212567e-01 -1.363538e-04 -1.899147e-05
1.174800e+01 -2.336928e-01 2.336926e-01 -1.622118e-04 2.268424e-06
1.175200e+01 -1.751429e-01 1.751427e-01 -1.658027e-04 2.467194e-05
1.175600e+01 2.356209e-01 -2.356211e-01 -1.773606e-04 2.159038e-05
1.176000e+01 2.346153e-01 -2.346155e-01 -1.673147e-04 1.644808e-05
1.176400e+01 2.098060e-01 -2.098062e-01 -1.736223e-04 -2.760190e-06
1.176800e+01 -1.725465e-01 1.725463e-01 -2.024261e-04 -2.820149e-05
1.177200e+01 -1.962948e-01 1.962946e-01 -1.938740e-04 -2.763157e-05
1.177600e+01 -2.086737e-01 2.086735e-01 -1.556661e-04 -1.532151e-06
1.178000e+01 -2.062710e-01 2.062708e-01 -1.703440e-04 -9.464227e-06
1.178400e+01 1.885217e-01 -1.885219e-01 -2.085897e-04 -1.712834e-05
1.178800e+01 1.973818e-01 -1.973820e-01 -1.848515e-04 1.686531e-05
1.179200e+01 1.947638e-01 -1.947639e-01 -9.916889e-05 3.574194e-05
1.179600e+01 1.714094e-01 -1.714095e-01 -7.665900e-05 -9.350286e-06
1.180000e+01 1.355520e-01 -1.355521e-01 -1.057604e-04 -4.901701e-05
1.180400e+01 9.018497e-02 -9.018512e-02 -1.497215e-04 -4.572309e-05
1.180800e+01 3.768190e-02 -3.768205e-02 -1.523041e-04 -2.705191e-05
1.181200e+01 -1.976628e-02 1.976621e-02 -6.852590e-05 2.918785e-05
1.181600e+01 -7.986097e-02 7.986100e-02 3.495901e-05 7.883916e-05
1.182000e+01 -1.402752e-01 1.402753e-01 7.021149e-05 4.964657e-05
1.182400e+01 1.988642e-01 -1.988641e-01 6.009640e-05 3.266281e-08
1.182800e+01 1.171246e-01 -1.171246e-01 2.229091e-05 -1.181331e-05
1.183200e+01 -4.330224e-02 4.330224e-02 -4.229935e-06 -6.186925e-06
1.183600e+01 -1.054793e-01 1.054793e-01 8.400603e-06 7.677370e-06
1.184000e+01 -1.664380e-01 1.664380e-01 3.209482e-05 2.206383e-05
1.184400e+01 -2.243095e-01 2.243095e-01 5.732299e-05 2.581713e-05
1.184800e+01 -2.777008e-01 2.777009e-01 1.062507e-04 1.928294e-05
1.185200e+01 3.257825e-01 -3.257824e-01 1.054383e-04 -2.830950e-06
1.185600e+01 2.350651e-01 -2.350650e-01 7.120879e-05 -1.696783e-05
1.186000e+01 1.479151e-01 -1.479150e-01 9.672431e-05 2.433397e-05
1.186400e+01 -6.716199e-02 6.716209e-02 1.004803e-04 6.136826e-05
1.186800e+01 1.324324e-01 -1.324323e-01 9.647955e-05 5.231989e-05
1.187200e+01 5.280853e-02 -5.280843e-02 1.007768e-04 1.697461e-05
1.187600e+01 1.835489e-02 -1.835480e-02 8.981137e-05 -9.998190e-06
1.188000e+01 -4.907918e-02 4.907927e-02 9.244731e-05 5.405449e-06
1.188400e+01 -1.153118e-01 1.153119e-01 1.143926e-04 2.204987e-05
1.188800e+01 -1.785336e-01 1.785336e-01 6.518006e-05 7.271940e-06
1.189200e+01 2.372569e-01 -2.372569e-01 5.823166e-05 -5.786187e-06
1.189600e+01 1.487611e-01 -1.487610e-01 1.096344e-04 -7.172720e-07
1.190000e+01 -6.636046e-02 6.636053e-02 7.498194e-05 -1.297361e-05
1.190400e+01 -1.331437e-01 1.331438e-01 4.063957e-05 -8.062378e-06
1.190800e+01 -1.960216e-01 1.960217e-01 8.174555e-05 5.849519e-06
1.191200e+01 -2.537295e-01 2.537296e-01 9.337708e-05 -4.889253e-06
1.191600e+01 3.055177e-01 -3.055177e-01 6.177659e-05 -2.405709e-05
1.192000e+01 2.130805e-01 -2.130804e-01 7.025802e-05 -1.192366e-05
1.192400e+01 1.242458e-01 -1.242456e-01 1.149242e-04 1.710112e-05
1.192800e+01 4.192960e-02 -4.192952e-02 8.636054e-05 1.020997e-05
1.193200e+01 3.222526e-02 -3.222521e-02 4.288957e-05 -1.181219e-05
1.193600e+01 -3.987432e-02 3.987439e-02 7.024579e-05 9.219146e-06
1.194000e+01 1.097820e-01 -1.097819e-01 9.678202e-05 1.969654e-05
1.194400e+01 2.865634e-02 -2.865629e-02 5.250874e-05 -4.522576e-06
1.194800e+01 -4.412814e-02 4.412815e-02 5.009840e-06 -1.637216e-05
1.195200e+01 -1.079742e-01 1.079743e-01 2.790039e-05 4.497763e-06
1.195600e+01 -1.627191e-01 1.627192e-01 6.527099e-05 2.432291e-05
1.196000e+01 2.091879e-01 -2.091879e-01 3.496070e-05 -7.038512e-06
1.196400e+01 -1.415002e-01 1.415002e-01 -2.598199e-05 -3.904118e-05
1.196800e+01 -1.894517e-01 1.894517e-01 2.110879e-05 3.473415e-06
1.197200e+01 2.278731e-01 -2.278730e-01 8.869917e-05 4.104647e-05
1.197600e+01 1.675111e-01 -1.675111e-01 6.565372e-05 1.086368e-05
1.198000e+01 -1.013810e-01 1.013810e-01 -1.799957e-07 -2.387148e-05
1.198400e+01 1.531081e-01 -1.531081e-01 -2.812466e-05 -2.914080e-05
1.198800e+01 8.768961e-02 -8.768960e-02 9.288916e-06 -1.005010e-05
1.199200e+01 2.014560e-02 -2.014554e-02 6.117422e-05 -4.720340e-06
1.199600e+01 4.784629e-02 -4.784622e-02 7.282830e-05 -1.595429e-05
1.200000e+01 -2.321083e-02 2.321092e-02 8.510120e-05 1.154608e-05
1.200400e+01 -8.512486e-02 8.512492e-02 6.338146e-05 1.053773e-05
1.200800e+01 -1.378443e-01 1.378444e-01 3.112730e-05 7.963455e-06
1.201200e+01 -1.795131e-01 1.795131e-01 -9.954892e-06 -3.969754e-06
1.201600e+01 -2.162936e-01 2.162936e-01 5.410373e-06 -2.279004e-05
1.202000e+01 -2.394038e-01 2.394038e-01 1.998479e-05 -3.357435e-05
1.202400e+01 -1.983134e-01 1.983134e-01 -6.573055e-06 -5.245332e-05
1.202800e+01 -2.653978e-01 2.653978e-01 -1.057830e-05 -4.861825e-05
1.203200e+01 -2.577272e-01 2.577272e-01 2.273196e-05 9.366470e-07
1.203600e+01 3.269432e-02 -3.269429e-02 2.722892e-05 4.089130e-05
1.204000e+01 -2.534449e-01 2.534449e-01 5.093418e-05 4.970078e-05
1.204400e+01 -2.107352e-01 2.107352e-01 5.269507e-05 -6.480529e-07
1.204800e+01 1.079291e-01 -1.079291e-01 1.567436e-05 -2.860504e-05
1.205200e+01 2.024528e-01 -2.024528e-01 2.560284e-05 -3.895049e-08
1.205600e+01 -2.441421e-01 2.441421e-01 5.984136e-05 1.221363e-05
1.206000e+01 -2.128063e-01 2.128064e-01 5.127003e-05 1.078012e-06
1.206400e+01 1.711609e-01 -1.711609e-01 1.306850e-05 -1.689499e-05
1.206800e+01 2.066935e-01 -2.066935e-01 1.476359e-06 -1.912657e-05
1.207200e+01 -2.315001e-01 2.315001e-01 7.108665e-06 -3.031502e-05
1.207600e+01 -2.035317e-01 2.035317e-01 1.804768e-05 -2.998029e-05
1.208000e+01 1.675862e-01 -1.675862e-01 3.846922e-05 4.193704e-07
1.208400e+01 2.004567e-01 -2.004566e-01 4.927111e-05 1.561294e-05
1.208800e+01 2.186625e-01 -2.186625e-01 3.527895e-05 -6.820372e-06
1.209200e+01 2.234935e-01 -2.234935e-01 2.535227e-05 -1.404735e-05
1.209600e+01 2.149682e-01 -2.149681e-01 3.730912e-05 -9.441539e-06
1.210000e+01 1.947547e-01 -1.947547e-01 4.543424e-05 4.215892e-06
1.210400e+01 -1.641410e-01 1.641410e-01 1.540983e-05 -1.511051e-05
1.210800e+01 -1.833776e-01 1.833776e-01 -1.067463e-05 -1.661919e-05
1.211200e+01 -1.922380e-01 1.922380e-01 1.039507e-05 8.956852e-06
1.211600e+01 1.901959e-01 -1.901959e-01 5.367203e-05 1.428958e-05
1.212000e+01 1.840214e-01 -1.840213e-01 7.018522e-05 1.107689e-05
1.212400e+01 1.653380e-01 -1.653380e-01 4.475511e-05 1.323535e-05
1.212800e+01 1.355092e-01 -1.355091e-01 4.075269e-05 -1.563414e-09
1.213200e+01 9.591738e-02 -9.591736e-02 1.693101e-05 -2.581485e-05
1.213600e+01 -4.825302e-02 4.825302e-02 -4.647358e-06 -2.114097e-05
1.214000e+01 -9.184089e-02 9.184087e-02 -2.270963e-05 -4.226944e-06
1.214400e+01 -1.249278e-01 1.249278e-01 -2.813695e-06 2.302669e-05
1.214800e+01 1.473446e-01 -1.473446e-01 6.385407e-05 5.803440e-05
1.215200e+01 1.175264e-01 -1.175263e-01 6.873183e-05 5.318575e-05
1.215600e+01 -7.775068e-02 7.775073e-02 4.857728e-05 1.751707e-05
1.216000e+01 -1.123195e-01 1.123195e-01 7.347160e-06 -2.275169e-06
1.216400e+01 1.348167e-01 -1.348167e-01 -2.441778e-05 -7.724237e-06
1.216800e+01 1.063696e-01 -1.063696e-01 -3.672034e-06 -1.497130e-05
1.217200e+01 6.632341e-02 -6.632340e-02 1.214024e-05 -9.972307e-06
1.217600e+01 1.824450e-02 -1.824450e-02 -2.708098e-06 -4.242973e-05
1.218000e+01 -3.564852e-02 3.564850e-02 -2.533598e-05 -5.045476e-05
1.218400e+01 9.293664e-02 -9.293664e-02 -5.326202e-08 -1.728803e-05
1.218800e+01 2.640236e-02 -2.640230e-02 6.622112e-05 2.227815e-05
1.219200e+01 2.997697e-02 -2.997685e-02 1.178027e-04 3.714416e-05
1.219600e+01 -2.414321e-02 2.414327e-02 5.474104e-05 5.203312e-06
1.220000e+01 -8.179188e-02 8.179185e-02 -2.177974e-05 -1.076855e-05
1.220400e+01 -1.405518e-01 1.405518e-01 -4.444842e-05 -1.055248e-05
1.220800e+01 -1.981448e-01 1.981448e-01 -2.831710e-06 2.314836e-05
1.221200e+01 -2.526741e-01 2.526741e-01 4.064525e-05 4.218386e-05
1.221600e+01 3.027969e-01 -3.027968e-01 3.893960e-05 -6.992935e-06
1.222000e+01 2.144405e-01 -2.144404e-01 3.761895e-05 8.379171e-07
1.222400e+01 1.311215e-01 -1.311215e-01 6.498080e-06 2.130868e-05
1.222800e+01 5.534952e-02 -5.534954e-02 -1.724071e-05 3.975741e-06
1.223200e+01 -1.138640e-02 1.138637e-02 -2.217054e-05 -1.145274e-05
1.223600e+01 6.845972e-02 -6.845970e-02 2.406615e-05 -6.718485e-07
1.224000e+01 8.875395e-03 -8.875349e-03 4.589371e-05 1.206719e-05
1.224400e+01 5.320406e-02 -5.320402e-02 4.002649e-05 4.356349e-05
1.224800e+01 -1.323216e-02 1.323216e-02 -9.196602e-07 3.526843e-05
1.225200e+01 -6.984563e-02 6.984561e-02 -2.108477e-05 -1.667119e-05
1.225600e+01 1.163402e-01 -1.163401e-01 2.140504e-05 -9.998505e-06
1.226000e+01 6.245941e-02 -6.245935e-02 5.255978e-05 -9.160794e-06
1.226400e+01 -3.209052e-03 3.209069e-03 1.686657e-05 -3.510397e-05
1.226800e+01 -6.079463e-02 6.079463e-02 -6.646385e-08 -2.204571e-05
1.227200e+01 -1.085253e-01 1.085253e-01 3.280674e-05 1.415721e-05
1.227600e+01 1.462424e-01 -1.462424e-01 3.658855e-05 3.426211e-05
1.228000e+01 9.806130e-02 -9.806132e-02 -1.783017e-05 3.977053e-06
1.228400e+01 4.427923e-02 -4.427921e-02 1.336667e-05 -5.936531e-06
1.228800e+01 -1.435983e-02 1.435990e-02 7.325651e-05 1.065485e-05
1.229200e+01 7.539859e-02 -7.539849e-02 1.022950e-04 2.185354e-05
1.229600e+01 7.279372e-03 -7.279327e-03 4.446605e-05 5.795087e-06
1.230000e+01 -5.099876e-02 5.099877e-02 5.625013e-06 7.143035e-06
1.230400e+01 9.888242e-02 -9.888240e-02 2.080754e-05 1.549580e-05
1.230800e+01 -4.567254e-02 4.567258e-02 4.094960e-05 4.437130e-06
1.231200e+01 -9.460320e-02 9.460321e-02 1.501438e-05 -1.874995e-05
1.231600e+01 1.312054e-01 -1.312054e-01 1.829779e-07 5.181364e-06
1.232000e+01 -8.679199e-02 8.679196e-02 -3.750853e-05 -1.413105e-05
1.232400e+01 1.266191e-01 -1.266191e-01 -2.786690e-06 -1.383090e-05
1.232800e+01 7.889405e-02 -7.889398e-02 6.253111e-05 2.930114e-05
1.233200e+01 -2.507676e-02 2.507685e-02 8.534824e-05 7.867735e-07
1.233600e+01 -7.570732e-02 7.570731e-02 -1.039040e-05 -5.020734e-05
1.234000e+01 -1.165194e-01 1.165195e-01 1.136451e-05 -1.108460e-05
1.234400e+01 1.466568e-01 -1.466567e-01 8.384473e-05 1.635591e-05
1.234800e+01 1.078256e-01 -1.078256e-01 4.291553e-05 -1.743572e-05
1.235200e+01 6.018197e-02 -6.018198e-02 -8.997874e-06 -2.608362e-05
1.235600e+01 -6.382145e-03 6.382151e-03 5.752983e-06 9.330988e-06
1.236000e+01 -5.912783e-02 5.912787e-02 4.634558e-05 3.619703e-05
1.236400e+01 -1.003607e-01 1.003607e-01 3.963598e-05 2.760531e-05
1.236800e+01 1.008136e-01 -1.008135e-01 5.392100e-05 1.653499e-05
1.237200e+01 1.056160e-01 -1.056160e-01 5.712036e-05 -6.306083e-06
1.237600e+01 -5.829106e-02 5.829110e-02 4.376274e-05 -2.512151e-05
1.238000e+01 -1.004565e-01 1.004565e-01 8.558448e-06 -2.510186e-05
1.238400e+01 -1.319324e-01 1.319324e-01 -4.525044e-05 -4.592490e-05
1.238800e+01 1.499024e-01 -1.499025e-01 -9.791392e-05 -4.488799e-05
1.239200e+01 -1.251926e-01 1.251926e-01 -5.374488e-05 2.783214e-05
1.239600e+01 -1.460922e-01 1.460923e-01 5.518869e-05 6.115998e-05
1.240000e+01 -1.374238e-01 1.374239e-01 4.145508e-05 2.096232e-06
1.240400e+01 1.437756e-01 -1.437756e-01 -3.786486e-06 -3.943023e-06
1.240800e+01 1.498180e-01 -1.498181e-01 -4.849795e-05 -2.984510e-06
1.241200e+01 -1.345351e-01 1.345350e-01 -1.061628e-04 -3.264027e-05
1.241600e+01 -1.455264e-01 1.455264e-01 -7.664268e-05 -1.353326e-05
1.242000e+01 -1.443586e-01 1.443586e-01 -2.678552e-05 1.589810e-05
1.242400e+01 1.289279e-01 -1.289279e-01 -2.399671e-05 -1.012075e-05
1.242800e+01 1.433223e-01 -1.433223e-01 -4.072149e-05 -2.178069e-05
1.243200e+01 -1.389363e-01 1.389362e-01 -3.055767e-05 -5.868686e-06
1.243600e+01 1.396352e-01 -1.396352e-01 -3.966870e-05 -3.137804e-05
1.244000e+01 1.341895e-01 -1.341895e-01 -2.938027e-05 -1.854574e-05
1.244400e+01 1.193001e-01 -1.193001e-01 9.453386e-06 2.371630e-05
1.244800e+01 -8.988442e-02 8.988446e-02 4.042836e-05 2.145931e-05
1.245200e+01 1.147757e-01 -1.147757e-01 2.323066e-05 -6.910269e-06
1.245600e+01 8.564487e-02 -8.564488e-02 -6.322457e-06 2.499839e-06
1.246000e+01 -4.633284e-02 4.633285e-02 7.799655e-06 1.334702e-05
1.246400e+01 -8.328585e-02 8.328590e-02 5.676211e-05 -2.717048e-05
1.246800e+01 -1.090715e-01 1.090716e-01 7.445473e-05 -3.524829e-05
1.247200e+01 1.208735e-01 -1.208735e-01 5.619979e-05 -2.806569e-05
1.247600e+01 -1.061203e-01 1.061204e-01 5.864146e-05 -3.288586e-05
1.248000e+01 -1.205530e-01 1.205531e-01 4.971912e-05 -1.746275e-05
1.248400e+01 1.199498e-01 -1.199498e-01 1.760448e-05 -2.302908e-05
1.248800e+01 1.180803e-01 -1.180802e-01 5.168373e-05 -2.279387e-06
1.249200e+01 9.971506e-02 -9.971497e-02 8.852332e-05 3.412267e-05
1.249600e+01 -7.013575e-02 7.013583e-02 7.898606e-05 -5.605781e-06
1.250000e+01 -9.764016e-02 9.764024e-02 7.965675e-05 -1.436411e-05
1.250400e+01 1.060640e-01 -1.060639e-01 9.783542e-05 1.644469e-05
1.250800e+01 9.650542e-02 -9.650532e-02 9.815541e-05 -3.836205e-06
1.251200e+01 6.625074e-02 -6.625069e-02 5.557756e-05 -2.533819e-05
1.251600e+01 2.597254e-02 -2.597254e-02 3.235021e-06 -1.171090e-05
1.252000e+01 -2.201225e-02 2.201225e-02 4.609067e-06 7.712542e-06
1.252400e+01 7.530466e-02 -7.530464e-02 2.475446e-05 9.355902e-07
1.252800e+01 -1.447287e-02 1.447291e-02 4.738862e-05 -1.857555e-05
1.253200e+01 -6.796724e-02 6.796727e-02 3.114326e-05 -1.043903e-05
1.253600e+01 -1.242190e-01 1.242190e-01 -3.388159e-06 8.733265e-06
1.254000e+01 -1.807191e-01 1.807191e-01 -1.293478e-05 3.676098e-05
1.254400e+01 -2.352837e-01 2.352836e-01 -1.854319e-05 3.708885e-05
1.254800e+01 2.862491e-01 -2.862491e-01 -1.203120e-05 -4.314726e-06
1.255200e+01 1.999820e-01 -1.999821e-01 -1.145823e-04 -3.235871e-05
1.255600e+01 -1.196123e-01 1.196120e-01 -3.260845e-04 -3.765463e-05
1.256000e+01 1.784692e-01 -1.784697e-01 -4.890924e-04 -3.193590e-05
1.256400e+01 9.939929e-02 -9.939978e-02 -4.942541e-04 1.998649e-05
1.256800e+01 -2.879203e-02 2.879178e-02 -2.471863e-04 5.897311e-05
1.257200e+01 -8.979485e-02 8.979488e-02 3.297238e-05 3.426712e-05
1.257600e+01 -1.504478e-01 1.504480e-01 1.913596e-04 -4.601727e-06
1.258000e+01 -2.087733e-01 2.087735e-01 2.728835e-04 1.136303e-05
1.258400e+01 -2.631809e-01 2.631812e-01 3.342929e-04 1.391412e-05
1.258800e+01 -3.126223e-01 3.126227e-01 3.640282e-04 1.390731e-05
1.259200e+01 3.566023e-01 -3.566020e-01 3.358392e-04 1.280184e-05
1.259600e+01 2.654077e-01 -2.654074e-01 2.618391e-04 -1.006713e-05
1.260000e+01 -1.766400e-01 1.766402e-01 2.054745e-04 6.773725e-06
1.260400e+01 -2.350803e-01 2.350805e-01 1.795778e-04 2.220936e-05
1.260800e+01 2.882684e-01 -2.882683e-01 1.077202e-04 1.513404e-05
1.261200e+01 -1.976446e-01 1.976446e-01 3.303006e-05 1.235849e-05
1.261600e+01 -2.548574e-01 2.548574e-01 3.492273e-05 2.574497e-05
1.262000e+01 -3.063194e-01 3.063194e-01 3.513375e-05 2.416441e-05
1.262400e+01 3.517412e-01 -3.517412e-01 -1.258696e-05 -1.125978e-05
1.262800e+01 -2.586939e-01 2.586939e-01 -3.660508e-05 6.302433e-06
1.263200e+01 -3.101619e-01 3.101618e-01 -1.626698e-05 4.384590e-05
1.263600e+01 -3.553643e-01 3.553643e-01 -1.470069e-05 4.370453e-05
1.264000e+01 3.945335e-01 -3.945335e-01 -2.005593e-06 1.985140e-05
1.264400e+01 3.008094e-01 -3.008094e-01 -3.043485e-05 -3.269623e-05
1.264800e+01 -2.069648e-01 2.069648e-01 -5.154939e-05 -3.496499e-05
1.265200e+01 2.651003e-01 -2.651004e-01 -4.706524e-05 1.416922e-06
1.265600e+01 -1.718419e-01 1.718419e-01 2.112218e-06 5.173361e-05
1.266000e+01 -2.338957e-01 2.338957e-01 6.843317e-07 2.220660e-05
1.266400e+01 -2.892643e-01 2.892643e-01 -2.821602e-05 -1.796766e-06
1.266800e+01 3.378133e-01 -3.378133e-01 -6.604926e-05 1.124842e-05
1.267200e+01 2.424889e-01 -2.424890e-01 -9.476407e-05 5.172079e-06
1.267600e+01 -1.489619e-01 1.489619e-01 -8.638287e-05 -3.112138e-06
1.268000e+01 2.140663e-01 -2.140663e-01 -1.369658e-05 3.001340e-05
1.268400e+01 1.215300e-01 -1.215300e-01 -1.105918e-05 4.355536e-05
1.268800e+01 -3.482580e-02 3.482572e-02 -7.955097e-05 -6.208563e-06
1.269200e+01 -1.094810e-01 1.094809e-01 -1.368022e-04 -5.715510e-05
1.269600e+01 -1.784484e-01 1.784483e-01 -1.074802e-04 -2.701027e-05
1.270000e+01 2.407388e-01 -2.407388e-01 -3.341248e-05 2.703191e-05
1.270400e+01 -1.466878e-01 1.466878e-01 -1.579501e-05 4.663980e-05
1.270800e+01 -2.124575e-01 2.124575e-01 -6.157735e-05 1.698061e-05
1.271200e+01 -2.711371e-01 2.711370e-01 -1.075185e-04 -2.531077e-05
1.271600e+01 -3.225709e-01 3.225708e-01 -1.110478e-04 -2.194341e-05
1.272000e+01 -3.670367e-01 3.670367e-01 -7.025373e-05 3.290815e-05
1.272400e+01 -4.050987e-01 4.050987e-01 -3.451409e-05 3.242506e-05
1.272800e+01 4.374662e-01 -4.374663e-01 -7.802420e-05 -2.892833e-05
1.273200e+01 -3.429823e-01 3.429822e-01 -9.668351e-05 -3.547654e-05
1.273600e+01 -3.847716e-01 3.847715e-01 -8.964146e-05 -4.157397e-05
1.274000e+01 -4.203383e-01 4.203382e-01 -8.237215e-05 -2.872185e-05
1.274400e+01 -4.504650e-01 4.504649e-01 -4.577740e-05 5.385211e-06
1.274800e+01 4.759212e-01 -4.759213e-01 -6.364714e-05 -1.016644e-06
1.275200e+01 -3.830265e-01 3.830263e-01 -1.609374e-04 -3.142628e-05
1.275600e+01 4.190289e-01 -4.190291e-01 -1.640714e-04 -3.171800e-05
1.276000e+01 -3.225667e-01 3.225666e-01 -1.331905e-04 -4.094040e-05
1.276400e+01 -3.678260e-01 3.678258e-01 -1.534827e-04 -4.672674e-05
1.276800e+01 -4.062708e-01 4.062706e-01 -1.871945e-04 -1.505917e-05
1.277200e+01 -4.387629e-01 4.387628e-01 -1.637162e-04 3.364016e-05
1.277600e+01 -4.661542e-01 4.661541e-01 -1.327661e-04 2.501634e-05
1.278000e+01 -4.892282e-01 4.892281e-01 -1.243034e-04 -1.354574e-06
1.278400e+01 -5.086745e-01 5.086744e-01 -1.064400e-04 1.007219e-05
1.278800e+01 -5.250838e-01 5.250836e-01 -1.791289e-04 3.894790e-06
1.279200e+01 5.389528e-01 -5.389530e-01 -2.271693e-04 -1.717803e-05
1.279600e+01 -4.505582e-01 4.505580e-01 -1.952223e-04 -1.096726e-05
1.280000e+01 -4.761837e-01 4.761835e-01 -1.876988e-04 -6.439001e-06
1.280400e+01 4.977285e-01 -4.977287e-01 -2.390120e-04 -4.068499e-05
1.280800e+01 -4.050572e-01 4.050570e-01 -2.450621e-04 -7.205589e-06
1.281200e+01 -4.380469e-01 4.380467e-01 -1.730243e-04 5.787459e-05
1.281600e+01 4.657399e-01 -4.657401e-01 -1.463876e-04 3.469767e-05
1.282000e+01 -3.702067e-01 3.702065e-01 -2.070609e-04 7.429324e-06
1.282400e+01 4.088636e-01 -4.088639e-01 -2.587978e-04 1.552948e-05
1.282800e+01 3.096346e-01 -3.096348e-01 -2.288057e-04 1.242459e-05
1.283200e+01 2.075665e-01 -2.075667e-01 -2.049031e-04 -2.288573e-06
1.283600e+01 1.068932e-01 -1.068934e-01 -2.269637e-04 -1.649957e-05
1.284000e+01 -1.147253e-02 1.147232e-02 -2.123560e-04 -4.593770e-06
1.284400e+01 -9.718579e-02 9.718554e-02 -2.507674e-04 -1.205452e-05
1.284800e+01 1.742615e-01 -1.742618e-01 -2.621201e-04 -1.414651e-05
1.285200e+01 -7.505257e-02 7.505235e-02 -2.263160e-04 8.630394e-06
1.285600e+01 -1.545118e-01 1.545116e-01 -2.131376e-04 5.047667e-06
1.286000e+01 -2.247139e-01 2.247137e-01 -1.669220e-04 1.557262e-05
1.286400e+01 -2.855284e-01 2.855283e-01 -1.093705e-04 3.613750e-05
1.286800e+01 -3.374574e-01 3.374573e-01 -9.272921e-05 6.431420e-06
1.287200e+01 3.813738e-01 -3.813739e-01 -1.077049e-04 -1.530863e-05
1.287600e+01 -2.807868e-01 2.807867e-01 -1.280042e-04 -1.502596e-05
1.288000e+01 -3.335311e-01 3.335309e-01 -1.184520e-04 -1.165822e-05
1.288400e+01 -3.781332e-01 3.781331e-01 -8.758566e-05 7.541582e-07
1.288800e+01 -4.156285e-01 4.156285e-01 -1.476338e-05 1.163939e-05
1.289200e+01 4.470599e-01 -4.470600e-01 -1.886905e-05 -1.108054e-05
1.289600e+01 -3.496448e-01 3.496448e-01 3.177208e-06 -2.411330e-06
1.290000e+01 -3.917989e-01 3.917989e-01 1.450212e-05 1.522440e-05
1.290400e+01 -4.271579e-01 4.271579e-01 2.061696e-05 1.875442e-05
1.290800e+01 -4.567623e-01 4.567623e-01 -2.492633e-06 5.612123e-06
1.291200e+01 4.815495e-01 -4.815495e-01 -4.896048e-05 -4.291505e-05
1.291600e+01 3.864809e-01 -3.864809e-01 -4.489750e-05 -2.821819e-05
1.292000e+01 -2.852370e-01 2.852371e-01 2.774608e-05 2.126965e-05
1.292400e+01 -3.377499e-01 3.377500e-01 1.096500e-04 2.705729e-05
1.292800e+01 -3.819913e-01 3.819914e-01 8.150771e-05 3.800587e-06
1.293200e+01 -4.190709e-01 4.190709e-01 -4.205143e-06 -3.354883e-05
1.293600e+01 4.500798e-01 -4.500798e-01 -2.831401e-05 -3.349895e-05
1.294000e+01 3.522471e-01 -3.522471e-01 5.549396e-06 1.330329e-05
1.294400e+01 -2.494138e-01 2.494138e-01 4.086325e-05 2.365127e-05
1.294800e+01 -3.075845e-01 3.075846e-01 6.608089e-05 -1.257959e-05
1.295200e+01 -3.567706e-01 3.567707e-01 7.324412e-05 6.111226e-07
1.295600e+01 3.980560e-01 -3.980559e-01 6.145486e-05 1.565209e-05
1.296000e+01 -2.968658e-01 2.968658e-01 2.786212e-05 -1.191123e-05
1.296400e+01 -3.478099e-01 3.478099e-01 -8.469029e-06 -4.576379e-05
1.296800e+01 -3.905975e-01 3.905975e-01 -3.316853e-05 -3.985188e-05
1.297200e+01 4.263818e-01 -4.263819e-01 -2.980431e-05 7.420667e-09
1.297600e+01 3.266148e-01 -3.266148e-01 -2.334001e-05 -1.566744e-05
1.298000e+01 -2.227433e-01 2.227434e-01 7.129172e-06 -1.401552e-05
1.298400e+01 -2.851313e-01 2.851313e-01 4.691077e-05 5.614758e-06
1.298800e+01 3.380324e-01 -3.380324e-01 3.918128e-05 1.341860e-05
1.299200e+01 2.343380e-01 -2.343380e-01 1.156919e-05 -4.027321e-06
1.299600e+01 1.304392e-01 -1.304392e-01 -1.689107e-05 3.947922e-06
1.300000e+01 3.069557e-02 -3.069557e-02 4.678700e-06 2.778176e-05
1.300400e+01 -6.140257e-02 6.140259e-02 2.026880e-05 3.601553e-05
1.300800e+01 1.437103e-01 -1.437103e-01 -3.725414e-05 5.593248e-06
1.301200e+01 -4.477265e-02 4.477262e-02 -2.980972e-05 2.149081e-05
1.301600e+01 -1.288032e-01 1.288032e-01 2.085277e-05 2.360867e-05
1.302000e+01 2.023497e-01 -2.023497e-01 1.837561e-05 5.951358e-06
1.302400e+01 -1.019506e-01 1.019506e-01 -1.685037e-06 3.601578e-05
1.302800e+01 1.787561e-01 -1.787561e-01 -1.766963e-05 3.488294e-05
1.303200e+01 -7.926184e-02 7.926182e-02 -2.185547e-05 -2.308659e-05
1.303600e+01 1.586662e-01 -1.586662e-01 -1.383020e-05 -1.677756e-05
1.304000e+01 6.011255e-02 -6.011257e-02 -2.156518e-05 -3.669096e-06
1.304400e+01 3.307358e-02 -3.307362e-02 -4.644053e-05 -3.157352e-05
1.304800e+01 5.806262e-02 -5.806269e-02 -6.819277e-05 -5.121922e-05
1.305200e+01 3.480188e-02 -3.480194e-02 -6.130256e-05 -3.536290e-05
1.305600e+01 5.625297e-02 -5.625300e-02 -2.324532e-05 1.877284e-05
1.306000e+01 -3.612022e-02 3.612020e-02 -1.624563e-05 4.253762e-05
1.306400e+01 1.207861e-01 -1.207861e-01 -2.013221e-05 4.247441e-05
1.306800e+01 2.318348e-02 -2.318354e-02 -5.265709e-05 8.321877e-06
1.307200e+01 6.659970e-02 -6.659977e-02 -6.649216e-05 -1.436484e-05
1.307600e+01 -2.637853e-02 2.637850e-02 -2.758117e-05 -2.158702e-05
1.308000e+01 -1.117438e-01 1.117438e-01 3.845924e-06 -1.831525e-05
1.308400e+01 -1.879323e-01 1.879323e-01 -9.209884e-06 -7.101526e-06
1.308800e+01 2.543892e-01 -2.543892e-01 2.083646e-05 3.686394e-05
1.309200e+01 1.517273e-01 -1.517273e-01 2.108656e-05 6.172544e-05
1.309600e+01 5.256620e-02 -5.256623e-02 -2.663322e-05 4.813444e-05
1.310000e+01 3.961767e-02 -3.961775e-02 -7.866920e-05 4.393896e-07
1.310400e+01 -5.120603e-02 5.120598e-02 -4.852133e-05 -4.759220e-05
1.310800e+01 -1.339303e-01 1.339303e-01 6.116637e-06 -1.481720e-05
1.311200e+01 -2.072889e-01 2.072889e-01 8.131492e-07 -7.144203e-06
1.311600e+01 -2.709721e-01 2.709721e-01 -1.326441e-05 -1.866640e-05
1.312000e+01 -3.253959e-01 3.253959e-01 -2.858613e-05 -1.913556e-05
1.312400e+01 -3.714180e-01 3.714180e-01 1.688232e-05 2.980262e-05
1.312800e+01 -4.100897e-01 4.100897e-01 -7.008741e-06 3.221396e-05
1.313200e+01 -4.424844e-01 4.424843e-01 -5.378629e-05 -8.747369e-06
1.313600e+01 4.695990e-01 -4.695990e-01 -6.485410e-05 -9.264594e-06
1.314000e+01 -3.735422e-01 3.735422e-01 -3.992795e-05 1.942082e-05
1.314400e+01 -4.119616e-01 4.119616e-01 -1.400122e-05 1.389053e-05
1.314800e+01 -4.441118e-01 4.441117e-01 -2.098200e-05 -5.491605e-05
1.315200e+01 -4.710009e-01 4.710009e-01 1.801967e-05 -4.745100e-05
1.315600e+01 -4.935108e-01 4.935109e-01 9.076394e-05 1.075443e-05
1.316000e+01 5.123896e-01 -5.123896e-01 6.090035e-05 2.542182e-05
1.316400e+01 -4.198763e-01 4.198763e-01 -1.028281e-05 -2.341616e-05
1.316800e+01 -4.508070e-01 4.508070e-01 -1.844836e-05 -4.417895e-05
1.317200e+01 -4.766527e-01 4.766527e-01 1.073613e-05 -2.326389e-05
1.317600e+01 4.982787e-01 -4.982787e-01 1.410568e-05 -1.175906e-05
1.318000e+01 -4.041667e-01 4.041666e-01 -4.584548e-05 -5.222808e-05
1.318400e+01 -4.377558e-01 4.377557e-01 -5.662261e-05 -5.009836e-05
1.318800e+01 4.657926e-01 -4.657926e-01 1.787774e-05 2.282337e-05
1.319200e+01 -3.686497e-01 3.686498e-01 8.201158e-05 7.426521e-05
1.319600e+01 -4.081634e-01 4.081635e-01 3.565821e-05 3.841514e-05
1.320000e+01 -4.411386e-01 4.411386e-01 4.898239e-06 1.393903e-05
1.320400e+01 4.686488e-01 -4.686488e-01 2.886654e-05 1.324276e-05
1.320800e+01 -3.715709e-01 3.715709e-01 2.444266e-05 -3.502707e-06
1.321200e+01 -4.106672e-01 4.106673e-01 7.405973e-05 2.487730e-05
1.321600e+01 -4.432711e-01 4.432711e-01 5.920811e-05 1.236106e-05
1.322000e+01 -4.704584e-01 4.704584e-01 8.192796e-06 -1.702348e-05
1.322400e+01 -4.931602e-01 4.931601e-01 -4.578122e-05 -3.025848e-05
1.322800e+01 5.121588e-01 -5.121588e-01 -7.740983e-05 -3.627007e-05
1.323200e+01 4.189373e-01 -4.189373e-01 -2.195988e-05 1.361486e-06
1.323600e+01 3.178813e-01 -3.178812e-01 4.796460e-05 4.617137e-05
1.324000e+01 2.127865e-01 -2.127865e-01 3.796118e-05 1.521975e-05
1.324400e+01 1.082216e-01 -1.082216e-01 -2.073234e-05 -6.173042e-05
1.324800e+01 8.601531e-03 -8.601560e-03 -2.889289e-05 -5.588182e-05
1.325200e+01 8.267182e-02 -8.267177e-02 4.653437e-05 2.441157e-06
1.325600e+01 -1.454187e-02 1.454192e-02 5.023733e-05 1.388606e-05
1.326000e+01 1.036781e-01 -1.036781e-01 1.190368e-05 -2.428894e-06
1.326400e+01 4.616720e-03 -4.616724e-03 -4.444923e-06 -1.610053e-06
1.326800e+01 -8.600338e-02 8.600335e-02 -3.214177e-05 -2.488164e-06
1.327200e+01 -1.663103e-01 1.663102e-01 -6.863471e-05 -2.578079e-05
1.327600e+01 2.357977e-01 -2.357977e-01 5.928127e-06 1.442694e-05
1.328000e+01 1.333159e-01 -1.333158e-01 8.953982e-05 5.325479e-05
1.328400e+01 3.388696e-02 -3.388688e-02 7.984751e-05 3.859726e-05
1.328800e+01 -5.901726e-02 5.901726e-02 4.157314e-07 1.695197e-05
1.329200e+01 1.429630e-01 -1.429630e-01 -4.488539e-05 4.654216e-06
1.329600e+01 4.212869e-02 -4.212876e-02 -6.399041e-05 -2.764701e-05
1.330000e+01 5.139570e-02 -5.139571e-02 -6.711923e-06 -4.100645e-05
1.330400e+01 -4.264729e-02 4.264732e-02 2.895932e-05 -3.502068e-05
1.330800e+01 -1.281508e-01 1.281508e-01 4.259879e-06 -1.958006e-05
1.331200e+01 -2.036919e-01 2.036919e-01 -1.126906e-06 -1.351858e-05
1.331600e+01 -2.689598e-01 2.689598e-01 -3.391036e-05 -3.187922e-05
1.332000e+01 -3.244601e-01 3.244601e-01 -4.828203e-05 -2.975329e-05
1.332400e+01 3.711695e-01 -3.711695e-01 -5.717980e-06 3.480416e-05
1.332800e+01 2.683269e-01 -2.683269e-01 3.625922e-05 5.101744e-05
1.333200e+01 1.637627e-01 -1.637627e-01 4.581484e-05 6.684144e-06
1.333600e+01 6.197702e-02 -6.197701e-02 1.778875e-05 -1.778930e-05
1.334000e+01 3.314655e-02 -3.314655e-02 -4.446209e-06 -1.151946e-05
1.334400e+01 5.937457e-02 -5.937464e-02 -7.324562e-05 -3.204488e-05
1.334800e+01 -3.538528e-02 3.538522e-02 -6.432622e-05 -3.475123e-05
1.335200e+01 1.208150e-01 -1.208150e-01 -1.003186e-05 -8.618888e-06
1.335600e+01 -2.275027e-02 2.275022e-02 -4.756317e-05 -1.462044e-05
1.336000e+01 -1.093918e-01 1.093917e-01 -9.934195e-05 -3.221556e-05
1.336400e+01 1.856514e-01 -1.856515e-01 -4.705661e-05 2.165402e-05
1.336800e+01 8.541682e-02 -8.541681e-02 1.474503e-05 8.533501e-05
1.337200e+01 -1.016512e-02 1.016510e-02 -1.264792e-05 7.258408e-05
1.337600e+01 -9.820168e-02 9.820162e-02 -5.815575e-05 3.921535e-05
1.338000e+01 1.768808e-01 -1.768809e-01 -8.275739e-05 1.773209e-05
1.338400e+01 7.537266e-02 -7.537273e-02 -7.790747e-05 1.038626e-05
1.338800e+01 -1.990943e-02 1.990934e-02 -8.359212e-05 2.735304e-06
1.339200e+01 1.062652e-01 -1.062653e-01 -1.181632e-04 -2.119880e-06
1.339600e+01 -9.876239e-03 9.876156e-03 -8.374856e-05 4.237670e-05
1.340000e+01 -9.709556e-02 9.709547e-02 -9.615763e-05 4.237362e-05
1.340400e+01 1.741618e-01 -1.741619e-01 -1.285460e-04 1.295431e-05
1.340800e+01 7.527459e-02 -7.527472e-02 -1.265636e-04 7.689349e-06
1.341200e+01 -1.877909e-02 1.877901e-02 -7.569973e-05 6.592056e-06
1.341600e+01 -1.052794e-01 1.052793e-01 -4.987575e-05 1.662001e-05
1.342000e+01 -1.825555e-01 1.825555e-01 -6.151548e-05 1.453614e-05
1.342400e+01 -2.499854e-01 2.499853e-01 -4.484649e-05 1.365346e-05
1.342800e+01 3.077936e-01 -3.077937e-01 -7.515161e-05 -1.747407e-06
1.343200e+01 2.045752e-01 -2.045754e-01 -1.643775e-04 -5.550451e-05
1.343600e+01 1.026446e-01 -1.026448e-01 -1.696083e-04 -5.178759e-05
1.344000e+01 -6.018640e-03 6.018625e-03 -1.466067e-05 3.678263e-05
1.344400e+01 -9.364095e-02 9.364101e-02 5.806762e-05 5.412594e-05
1.344800e+01 -1.722264e-01 1.722264e-01 -7.524854e-06 -1.265125e-05
1.345200e+01 -2.410136e-01 2.410136e-01 -1.870802e-05 -4.972105e-06
1.345600e+01 -3.001223e-01 3.001224e-01 8.011436e-05 5.452566e-05
1.346000e+01 -3.502637e-01 3.502637e-01 3.856873e-05 3.138009e-05
1.346400e+01 -3.924540e-01 3.924539e-01 -3.128198e-05 -2.397171e-05
1.346800e+01 4.277989e-01 -4.277989e-01 -3.644053e-05 -2.698813e-05
1.347200e+01 3.286146e-01 -3.286146e-01 -7.888663e-06 -8.821416e-06
1.347600e+01 -2.254415e-01 2.254415e-01 1.383560e-05 4.974668e-07
1.348000e+01 -2.870288e-01 2.870288e-01 -2.457792e-05 1.205186e-05
1.348400e+01 -3.393471e-01 3.393471e-01 -5.809208e-05 3.582846e-05
1.348800e+01 -3.833908e-01 3.833908e-01 -4.665895e-05 3.104311e-06
1.349200e+01 -4.202829e-01 4.202829e-01 1.366276e-05 -3.724657e-05
1.349600e+01 -4.511214e-01 4.511214e-01 5.286177e-05 -1.356695e-05
1.350000e+01 -4.768994e-01 4.768994e-01 7.938134e-05 4.819091e-06
1.350400e+01 -4.984755e-01 4.984755e-01 4.825971e-05 -2.666196e-06
1.350800e+01 -5.165722e-01 5.165722e-01 9.875123e-06 -1.023486e-06
1.351200e+01 -5.317881e-01 5.317881e-01 -1.963018e-05 -1.445821e-05
1.351600e+01 -5.446153e-01 5.446153e-01 -7.352985e-05 -4.091738e-05
1.352000e+01 -5.554568e-01 5.554568e-01 -4.524119e-05 -1.679850e-05
1.352400e+01 -5.646426e-01 5.646426e-01 2.348691e-06 2.087553e-05
1.352800e+01 -5.724435e-01 5.724434e-01 -3.131447e-05 1.152972e-05
1.353200e+01 5.790817e-01 -5.790818e-01 -5.527219e-05 2.376268e-05
1.353600e+01 -4.939624e-01 4.939623e-01 -6.255406e-05 5.883643e-06
1.354000e+01 -5.128300e-01 5.128298e-01 -1.821986e-04 -5.278384e-05
1.354400e+01 5.286642e-01 -5.286646e-01 -3.461589e-04 -4.255975e-05
1.354800e+01 -4.372101e-01 4.372096e-01 -4.355877e-04 5.026232e-06
1.355200e+01 4.654514e-01 -4.654519e-01 -4.982718e-04 1.426800e-05
1.355600e+01 3.677159e-01 -3.677163e-01 -3.834895e-04 5.956035e-07
1.356000e+01 -2.639196e-01 2.639195e-01 -1.084335e-04 2.845518e-06
1.356400e+01 -3.207050e-01 3.207051e-01 7.702946e-05 -1.696800e-05
1.356800e+01 3.683799e-01 -3.683798e-01 1.570856e-04 -2.228449e-05
1.357200e+01 2.645544e-01 -2.645541e-01 2.798463e-04 1.417478e-05
1.357600e+01 -1.589313e-01 1.589317e-01 3.773979e-04 2.245136e-05
1.358000e+01 2.312851e-01 -2.312847e-01 3.647453e-04 -2.437648e-05
1.358400e+01 1.260909e-01 -1.260906e-01 3.060245e-04 -1.539671e-05
1.358800e+01 -2.511535e-02 2.511558e-02 2.283727e-04 1.152931e-07
1.359200e+01 1.135421e-01 -1.135419e-01 1.466093e-04 -1.127317e-05
1.359600e+01 1.344343e-02 -1.344334e-02 8.957103e-05 -1.260332e-05
1.360000e+01 -7.843878e-02 7.843881e-02 2.762645e-05 -1.861085e-05
1.360400e+01 -1.600588e-01 1.600587e-01 -7.400650e-05 -4.084336e-05
1.360800e+01 2.307682e-01 -2.307682e-01 -7.632595e-05 -2.077070e-05
1.361200e+01 -1.278302e-01 1.278302e-01 -1.739239e-05 2.783518e-05
1.361600e+01 2.028012e-01 -2.028012e-01 -1.462291e-05 3.835699e-05
1.362000e+01 1.005838e-01 -1.005839e-01 -7.535431e-05 1.976685e-06
1.362400e+01 2.661979e-03 -2.662106e-03 -1.266558e-04 -2.849417e-05
1.362800e+01 8.775206e-02 -8.775218e-02 -1.178524e-04 -1.987233e-05
1.363200e+01 9.797533e-03 -9.797592e-03 -5.838605e-05 3.033432e-05
1.363600e+01 -8.114979e-02 8.114973e-02 -5.938245e-05 -4.774308e-07
1.364000e+01 1.626857e-01 -1.626858e-01 -8.673344e-05 -4.536677e-06
1.364400e+01 6.073888e-02 -6.073894e-02 -5.243933e-05 5.124881e-05
1.364800e+01 3.450173e-02 -3.450172e-02 8.584718e-06 7.041809e-05
1.365200e+01 5.835034e-02 -5.835037e-02 -2.479357e-05 2.814888e-05
1.365600e+01 -3.655642e-02 3.655633e-02 -8.369853e-05 -3.136107e-05
1.366000e+01 1.220875e-01 -1.220877e-01 -1.284666e-04 -4.899195e-05
1.366400e+01 -2.370201e-02 2.370188e-02 -1.337961e-04 -3.491157e-05
1.366800e+01 1.104621e-01 -1.104622e-01 -5.247863e-05 1.085675e-05
1.367200e+01 1.290146e-02 -1.290148e-02 -2.779663e-05 1.566272e-05
1.367600e+01 7.763828e-02 -7.763837e-02 -9.084916e-05 -2.076179e-05
1.368000e+01 -1.832276e-02 1.832258e-02 -1.725894e-04 -2.945867e-05
1.368400e+01 -1.053512e-01 1.053510e-01 -1.552185e-04 -1.888344e-05
1.368800e+01 -1.820475e-01 1.820474e-01 -1.059210e-04 -1.664140e-05
1.369200e+01 2.482133e-01 -2.482133e-01 -7.479903e-05 1.820483e-05
1.369600e+01 -1.472964e-01 1.472963e-01 -9.806093e-05 2.218265e-06
1.370000e+01 2.180826e-01 -2.180827e-01 -1.340245e-04 -3.268092e-05
1.370400e+01 1.177938e-01 -1.177939e-01 -8.399401e-05 -8.176410e-06
1.370800e+01 2.095974e-02 -2.095974e-02 -5.022466e-06 3.859364e-05
1.371200e+01 -6.931577e-02 6.931571e-02 -6.134628e-05 2.063862e-05
1.371600e+01 1.508797e-01 -1.508798e-01 -1.067748e-04 2.074903e-05
1.372000e+01 5.110992e-02 -5.111004e-02 -1.292535e-04 2.164697e-05
1.372400e+01 -4.163249e-02 4.163230e-02 -1.947956e-04 -2.641361e-05
1.372800e+01 1.221600e-01 -1.221602e-01 -1.882593e-04 -5.448034e-05
1.373200e+01 -3.118698e-02 3.118684e-02 -1.366530e-04 -2.965702e-05
1.373600e+01 -1.156820e-01 1.156818e-01 -1.744305e-04 -3.383879e-05
1.374000e+01 1.888390e-01 -1.888392e-01 -1.799904e-04 -1.927951e-05
1.374400e+01 -9.192946e-02 9.192933e-02 -1.267528e-04 2.971476e-05
1.374800e+01 -1.689888e-01 1.689887e-01 -8.498340e-05 4.680216e-05
1.375200e+01 -2.357574e-01 2.357573e-01 -1.273505e-04 9.838872e-07
1.375600e+01 -2.927572e-01 2.927570e-01 -1.714366e-04 -4.161728e-05
1.376000e+01 3.409557e-01 -3.409559e-01 -1.877267e-04 -4.049780e-05
1.376400e+01 2.437627e-01 -2.437628e-01 -1.338833e-04 5.010448e-06
1.376800e+01 1.455497e-01 -1.455498e-01 -1.268044e-04 1.238064e-05
1.377200e+01 -4.962642e-02 4.962620e-02 -2.182218e-04 -3.373458e-05
1.377600e+01 -1.305726e-01 1.305724e-01 -2.609202e-04 -2.469897e-05
1.378000e+01 2.014485e-01 -2.014487e-01 -2.337979e-04 2.553718e-05
1.378400e+01 1.044958e-01 -1.044960e-01 -1.886702e-04 4.208403e-05
1.378800e+01 1.108315e-02 -1.108337e-02 -2.198785e-04 -4.327427e-06
1.379200e+01 -7.610341e-02 7.610314e-02 -2.766722e-04 -8.994774e-06
1.379600e+01 1.551545e-01 -1.551547e-01 -2.520792e-04 2.378979e-05
1.380000e+01 -5.729793e-02 5.729771e-02 -2.213008e-04 4.210192e-06
1.380400e+01 -1.382284e-01 1.382282e-01 -2.566466e-04 -4.396743e-05
1.380800e+01 2.101909e-01 -2.101911e-01 -2.551773e-04 -2.732700e-05
1.381200e+01 1.099517e-01 -1.099519e-01 -2.496775e-04 3.153393e-05
1.381600e+01 1.493383e-02 -1.493409e-02 -2.567369e-04 4.988547e-05
1.382000e+01 -7.140408e-02 7.140384e-02 -2.416758e-04 6.834632e-05
1.382400e+01 1.488467e-01 -1.488469e-01 -2.185455e-04 3.619650e-05
1.382800e+01 -5.427608e-02 5.427589e-02 -1.968041e-04 -1.016392e-05
1.383200e+01 -1.334956e-01 1.334954e-01 -1.933871e-04 1.290544e-05
1.383600e+01 -2.028136e-01 2.028133e-01 -2.313174e-04 2.028973e-05
1.384000e+01 -2.624870e-01 2.624867e-01 -2.717518e-04 -7.126771e-06
1.384400e+01 -3.133209e-01 3.133207e-01 -2.246570e-04 1.899949e-06
1.384800e+01 3.562806e-01 -3.562807e-01 -1.704821e-04 2.724760e-05
1.385200e+01 2.636408e-01 -2.636409e-01 -1.571450e-04 2.454319e-05
1.385600e+01 -1.694949e-01 1.694948e-01 -1.444366e-04 1.717760e-05
1.386000e+01 2.271614e-01 -2.271616e-01 -1.344867e-04 1.740758e-05
1.386400e+01 1.418247e-01 -1.418248e-01 -1.412332e-04 3.013659e-06
1.386800e+01 -5.009115e-02 5.009102e-02 -1.288080e-04 -2.711705e-05
1.387200e+01 1.277448e-01 -1.277449e-01 -1.174271e-04 -4.735742e-05
1.387600e+01 3.685653e-02 -3.685659e-02 -5.923506e-05 -2.104958e-06
1.388000e+01 -4.929044e-02 4.929044e-02 3.805415e-06 4.194890e-05
1.388400e+01 1.287067e-01 -1.287067e-01 -1.609981e-05 3.823767e-06
1.388800e+01 3.507242e-02 -3.507248e-02 -5.599923e-05 -2.219180e-05
1.389200e+01 5.099847e-02 -5.099851e-02 -3.143636e-05 1.507390e-05
1.389600e+01 3.578514e-02 -3.578512e-02 1.982316e-05 4.921591e-05
1.390000e+01 -5.016057e-02 5.016060e-02 3.617501e-05 4.324863e-05
1.390400e+01 1.270391e-01 -1.270391e-01 5.167331e-05 -3.111826e-06
1.390800e+01 3.711010e-02 -3.711003e-02 6.629110e-05 -3.147091e-05
1.391200e+01 -4.824558e-02 4.824560e-02 1.462289e-05 -2.560053e-05
1.391600e+01 1.271203e-01 -1.271203e-01 -3.982742e-05 -2.292428e-05
1.392000e+01 3.431167e-02 -3.431164e-02 3.251289e-05 1.367463e-05
1.392400e+01 -5.092672e-02 5.092683e-02 1.171475e-04 3.419366e-05
1.392800e+01 1.271390e-01 -1.271390e-01 8.330537e-05 4.144440e-06
1.393200e+01 -3.791828e-02 3.791831e-02 3.767277e-05 -5.889238e-06
1.393600e+01 1.130845e-01 -1.130845e-01 2.095313e-05 -3.648882e-06
1.394000e+01 2.875495e-02 -2.875491e-02 4.450764e-05 -4.404497e-06
1.394400e+01 5.526897e-02 -5.526890e-02 7.350587e-05 2.981498e-06
1.394800e+01 3.117760e-02 -3.117753e-02 6.388038e-05 -8.305717e-06
1.395200e+01 -5.282031e-02 5.282034e-02 3.212883e-05 -3.218429e-05
1.395600e+01 -1.305569e-01 1.305569e-01 3.058367e-05 -2.154491e-05
1.396000e+01 -2.007399e-01 2.007400e-01 2.750346e-05 -7.081388e-06
1.396400e+01 -2.627648e-01 2.627648e-01 4.263121e-05 1.065477e-05
1.396800e+01 3.166420e-01 -3.166420e-01 6.096691e-05 6.068471e-06
1.397200e+01 2.176009e-01 -2.176008e-01 4.417256e-05 -7.703067e-06
1.397600e+01 1.203276e-01 -1.203276e-01 5.872052e-06 -2.371030e-06
1.398000e+01 2.828457e-02 -2.828456e-02 1.218503e-05 1.651385e-05
1.398400e+01 5.601048e-02 -5.601049e-02 -1.422355e-05 -1.054942e-05
1.398800e+01 2.983045e-02 -2.983043e-02 1.511163e-05 -1.048117e-05
1.399200e+01 -5.440202e-02 5.440208e-02 6.405522e-05 3.362156e-06
1.399600e+01 -1.294819e-01 1.294820e-01 1.024627e-04 2.329252e-05
1.400000e+01 1.953345e-01 -1.953345e-01 8.442216e-05 8.665297e-06
1.400400e+01 1.057922e-01 -1.057922e-01 4.064243e-05 -1.518143e-05
1.400800e+01 -1.867843e-02 1.867843e-02 4.557303e-06 -1.285787e-05
1.401200e+01 -9.704489e-02 9.704489e-02 2.736168e-06 -1.141668e-05
1.401600e+01 -1.661539e-01 1.661539e-01 -1.824292e-06 -2.274080e-05
1.402000e+01 2.086205e-01 -2.086205e-01 -1.215261e-05 4.987864e-06
1.402400e+01 -1.466754e-01 1.466754e-01 4.487768e-05 3.854898e-05
1.402800e+01 -2.091499e-01 2.091500e-01 5.701727e-05 1.243660e-05
1.403200e+01 -2.628829e-01 2.628830e-01 4.417853e-05 -1.863357e-05
1.403600e+01 3.086651e-01 -3.086651e-01 4.084050e-05 -2.042036e-05
1.404000e+01 2.229614e-01 -2.229614e-01 1.043249e-05 -1.866167e-05
1.404400e+01 1.366081e-01 -1.366081e-01 8.810009e-06 -9.222804e-06
1.404800e+01 5.143622e-02 -5.143620e-02 1.608334e-05 -3.638630e-06
1.405200e+01 -3.063374e-02 3.063377e-02 3.058807e-05 -2.020764e-06
1.405600e+01 -1.077880e-01 1.077881e-01 6.711263e-05 2.592548e-05
1.406000e+01 -1.785664e-01 1.785665e-01 5.945873e-05 1.932913e-05
1.406400e+01 -2.420444e-01 2.420444e-01 9.194399e-06 -9.556398e-06
1.406800e+01 2.978817e-01 -2.978817e-01 -1.247849e-05 -1.705462e-05
1.407200e+01 2.005664e-01 -2.005664e-01 -3.164977e-05 -7.571799e-06
1.407600e+01 -1.060894e-01 1.060893e-01 -2.487590e-05 -4.328543e-06
1.408000e+01 1.774835e-01 -1.774835e-01 3.771399e-05 -1.617775e-05
1.408400e+01 8.410616e-02 -8.410609e-02 7.568422e-05 1.938002e-07
1.408800e+01 2.712639e-03 -2.712558e-03 8.126296e-05 1.902449e-05
1.409200e+01 -7.737201e-02 7.737205e-02 4.837854e-05 4.041717e-06
1.409600e+01 1.513761e-01 -1.513761e-01 4.377108e-05 1.161798e-05
1.410000e+01 5.961040e-02 -5.961036e-02 3.391525e-05 -1.652180e-05
1.410400e+01 -2.499332e-02 2.499330e-02 -1.478289e-05 -5.983996e-05
1.410800e+01 -1.009369e-01 1.009368e-01 -4.008550e-05 -6.274251e-05
1.411200e+01 1.677010e-01 -1.677010e-01 5.197854e-06 -3.961203e-05
1.411600e+01 8.209641e-02 -8.209632e-02 9.208270e-05 3.771834e-05
1.412000e+01 -1.171367e-03 1.171504e-03 1.370818e-04 6.905493e-05
1.412400e+01 8.019872e-02 -8.019863e-02 9.595325e-05 2.242960e-05
1.412800e+01 -5.371655e-03 5.371693e-03 3.728514e-05 -2.012530e-06
1.413200e+01 -8.253255e-02 8.253255e-02 -3.400016e-06 -3.230040e-05
1.413600e+01 -1.505968e-01 1.505969e-01 3.523297e-05 -4.356139e-05
1.414000e+01 -2.095934e-01 2.095935e-01 1.085182e-04 -6.440187e-06
1.414400e+01 2.604059e-01 -2.604058e-01 1.122363e-04 1.665338e-05
1.414800e+01 1.777070e-01 -1.777069e-01 6.890534e-05 -6.657660e-06
1.415200e+01 9.498630e-02 -9.498626e-02 4.161755e-05 -1.752287e-05
1.415600e+01 -1.375434e-02 1.375436e-02 1.622293e-05 -1.623886e-05
1.416000e+01 -8.803121e-02 8.803123e-02 1.763571e-05 -1.623958e-06
1.416400e+01 -1.532349e-01 1.532350e-01 7.358269e-05 4.947877e-06
1.416800e+01 -2.095918e-01 2.095919e-01 1.085910e-04 2.868043e-05
1.417200e+01 2.579515e-01 -2.579514e-01 9.236574e-05 2.056905e-05
1.417600e+01 1.791383e-01 -1.791383e-01 5.018721e-05 -7.305402e-06
1.418000e+01 9.967157e-02 -9.967159e-02 -1.807819e-05 -3.683428e-05
1.418400e+01 2.095451e-02 -2.095454e-02 -2.640839e-05 -3.407104e-05
1.418800e+01 5.535850e-02 -5.535845e-02 4.957604e-05 -2.857557e-06
1.419200e+01 -2.413758e-02 2.413771e-02 1.304909e-04 3.508901e-05
1.419600e+01 -9.488353e-02 9.488362e-02 9.288907e-05 -2.053993e-06
1.420000e+01 -1.565747e-01 1.565747e-01 3.689945e-05 -2.272186e-05
1.420400e+01 -2.097380e-01 2.097380e-01 1.451292e-05 1.694015e-05
1.420800e+01 -2.450626e-01 2.450626e-01 1.135292e-05 3.436014e-05
1.421200e+01 2.908515e-01 -2.908515e-01 4.767559e-05 2.254798e-05
1.421600e+01 2.207028e-01 -2.207027e-01 1.092428e-04 6.431870e-06
1.422000e+01 -1.481287e-01 1.481288e-01 1.148042e-04 -4.570147e-06
1.422400e+01 -1.990416e-01 1.990417e-01 3.671792e-05 -3.138311e-05
1.422800e+01 -2.390658e-01 2.390658e-01 -3.862927e-05 -3.471487e-05
1.423200e+01 2.554034e-01 -2.554034e-01 1.246945e-05 1.332759e-05
1.423600e+01 2.195143e-01 -2.195141e-01 1.222978e-04 6.403249e-05
1.424000e+01 1.512944e-01 -1.512943e-01 1.420672e-04 4.043508e-05
1.424400e+01 -8.086099e-02 8.086104e-02 4.854121e-05 -3.208338e-06
1.424800e+01 -1.382280e-01 1.382280e-01 -2.111770e-05 -2.969417e-05
1.425200e+01 1.841988e-01 -1.841988e-01 7.208173e-06 -7.382676e-06
1.425600e+01 1.213319e-01 -1.213319e-01 3.540601e-05 1.319002e-06
1.426000e+01 5.218304e-02 -5.218302e-02 2.252298e-05 -1.750090e-05
1.426400e+01 1.777913e-02 -1.777904e-02 8.537432e-05 2.757243e-05
1.426800e+01 -5.127520e-02 5.127531e-02 1.148904e-04 4.010750e-05
1.427200e+01 -1.110831e-01 1.110831e-01 9.074609e-05 1.205709e-05
1.427600e+01 -1.611452e-01 1.611452e-01 6.441431e-05 3.117695e-06
1.428000e+01 1.843497e-01 -1.843496e-01 7.192536e-05 1.230492e-05
1.428400e+01 1.504223e-01 -1.504222e-01 7.630327e-05 1.449149e-05
1.428800e+01 8.507462e-02 -8.507454e-02 7.485512e-05 2.589115e-05
1.429200e+01 -1.745563e-02 1.745568e-02 4.522657e-05 1.104612e-05
1.429600e+01 -8.030192e-02 8.030191e-02 -7.718711e-06 -3.026367e-05
1.430000e+01 -1.338896e-01 1.338895e-01 -3.334644e-05 -7.306463e-05
1.430400e+01 1.783235e-01 -1.783235e-01 3.606947e-06 -3.608705e-05
1.430800e+01 -1.180328e-01 1.180329e-01 2.859569e-05 2.097848e-05
1.431200e+01 -1.636213e-01 1.636214e-01 6.525790e-05 1.928180e-05
1.431600e+01 -1.981807e-01 1.981808e-01 1.085140e-04 2.204368e-05
1.432000e+01 2.283390e-01 -2.283389e-01 6.738576e-05 1.990836e-05
1.432400e+01 -1.815155e-01 1.815155e-01 -2.438512e-05 -9.600086e-06
1.432800e+01 -2.113757e-01 2.113757e-01 -5.781080e-05 -3.803813e-05
1.433200e+01 2.284357e-01 -2.284357e-01 -3.726077e-05 -3.042603e-05
1.433600e+01 -1.936047e-01 1.936047e-01 3.943150e-05 1.778764e-05
1.434000e+01 2.153942e-01 -2.153941e-01 9.899932e-05 2.172366e-05
1.434400e+01 1.791118e-01 -1.791117e-01 9.638361e-05 9.703481e-06
1.434800e+01 -1.326971e-01 1.326971e-01 8.230741e-05 -6.498189e-06
1.435200e+01 -1.659301e-01 1.659302e-01 7.713037e-05 -8.354285e-06
1.435600e+01 1.885882e-01 -1.885881e-01 8.686406e-05 1.779240e-05
1.436000e+01 1.537659e-01 -1.537658e-01 6.783327e-05 2.461681e-05
1.436400e+01 1.086505e-01 -1.086504e-01 1.645633e-05 -3.854839e-06
1.436800e+01 -5.603522e-02 5.603524e-02 1.668142e-05 -1.019710e-05
1.437200e+01 -1.028753e-01 1.028753e-01 4.734849e-05 1.769067e-05
1.437600e+01 -1.394272e-01 1.394272e-01 -1.259194e-05 2.758349e-06
1.438000e+01 -1.641705e-01 1.641705e-01 -6.852234e-05 -2.140542e-05
1.438400e+01 1.802670e-01 -1.802670e-01 -1.536296e-06 6.354237e-06
1.438800e+01 1.566628e-01 -1.566627e-01 1.079839e-04 4.328250e-05
1.439200e+01 1.195123e-01 -1.195122e-01 9.321576e-05 3.384486e-05
1.439600e+01 -7.349814e-02 7.349815e-02 1.039880e-05 3.896884e-06
1.440000e+01 -1.133853e-01 1.133853e-01 -6.375189e-05 -1.820135e-05
1.440400e+01 1.135884e-01 -1.135885e-01 -1.028145e-04 -1.057382e-05
1.440800e+01 1.154931e-01 -1.154932e-01 -4.101709e-05 1.414831e-05
1.441200e+01 -7.075854e-02 7.075854e-02 4.262824e-06 2.035556e-05
1.441600e+01 -1.101404e-01 1.101404e-01 -4.265582e-06 -1.180233e-05
1.442000e+01 -1.368071e-01 1.368070e-01 -3.182301e-05 -3.937367e-05
1.442400e+01 1.578768e-01 -1.578768e-01 -6.169667e-05 -2.807811e-05
1.442800e+01 -1.314991e-01 1.314990e-01 -3.633490e-05 -1.604313e-05
1.443200e+01 -1.508005e-01 1.508006e-01 4.268111e-05 9.387372e-06
1.443600e+01 -1.546001e-01 1.546001e-01 3.594912e-05 -8.331996e-06
1.444000e+01 -1.429189e-01 1.429189e-01 9.866234e-06 -1.185101e-05
1.444400e+01 3.772254e-02 -3.772251e-02 3.913423e-05 2.806379e-05
1.444800e+01 1.266382e-01 -1.266381e-01 7.275281e-05 1.662470e-05
1.445200e+01 -1.520867e-01 1.520868e-01 9.589994e-05 -1.255990e-05
1.445600e+01 2.588089e-02 -2.588079e-02 9.210335e-05 -5.907614e-07
1.446000e+01 -1.354977e-01 1.354978e-01 7.781152e-05 9.734351e-06
1.446400e+01 -8.478032e-02 8.478041e-02 9.257767e-05 1.455514e-05
1.446800e+01 -9.914514e-02 9.914527e-02 1.223026e-04 1.128598e-05
1.447200e+01 -5.733961e-02 5.733973e-02 1.168942e-04 -7.367084e-06
1.447600e+01 8.789347e-03 -8.789278e-03 6.986607e-05 -2.157269e-05
1.448000e+01 -3.774955e-02 3.774960e-02 4.765870e-05 -2.822278e-05
1.448400e+01 -1.731903e-03 1.731944e-03 4.070922e-05 -1.362806e-05
1.448800e+01 1.628829e-02 -1.628820e-02 8.320150e-05 2.043366e-05
1.449200e+01 2.192054e-02 -2.192045e-02 9.208656e-05 1.902820e-05
1.449600e+01 3.016106e-02 -3.016099e-02 7.377256e-05 -1.961139e-05
1.450000e+01 -1.811496e-02 1.811503e-02 7.228545e-05 -3.079834e-05
1.450400e+01 2.440122e-02 -2.440119e-02 2.543258e-05 -4.364298e-05
1.450800e+01 8.055301e-02 -8.055299e-02 1.355897e-05 -3.631092e-05
1.451200e+01 -9.867131e-02 9.867139e-02 8.203243e-05 2.662745e-05
1.451600e+01 -5.905487e-02 5.905496e-02 8.396900e-05 5.835773e-05
1.452000e+01 2.781936e-02 -2.781931e-02 4.395823e-05 2.772490e-05
1.452400e+01 6.020888e-02 -6.020881e-02 7.661638e-05 3.533695e-05
1.452800e+01 7.825564e-02 -7.825559e-02 4.912697e-05 3.575469e-05
1.453200e+01 1.041363e-01 -1.041363e-01 -4.407405e-06 -1.859847e-05
1.453600e+01 -8.299278e-02 8.299274e-02 -3.896863e-05 -4.921273e-05
1.454000e+01 1.006498e-01 -1.006499e-01 -9.813702e-05 -1.426315e-05
1.454400e+01 -8.382700e-02 8.382676e-02 -2.404207e-04 4.834485e-06
1.454800e+01 -5.725255e-02 5.725212e-02 -4.316279e-04 -1.184681e-05
1.455200e+01 -1.968207e-02 1.968153e-02 -5.382701e-04 -5.013157e-05
1.455600e+01 -8.513894e-03 8.513503e-03 -3.908634e-04 -8.055600e-05
1.456000e+01 -3.434277e-02 3.434274e-02 -3.038467e-05 -3.551715e-05
1.456400e+01 5.874737e-03 -5.874458e-03 2.791596e-04 4.416690e-05
1.456800e+01 3.869231e-02 -3.869196e-02 3.528755e-04 5.072564e-05
1.457200e+01 7.359238e-02 -7.359208e-02 3.072763e-04 1.215834e-06
1.457600e+01 -1.072854e-01 1.072858e-01 3.656592e-04 -3.739337e-07
1.458000e+01 -7.131748e-02 7.131791e-02 4.333159e-04 1.629650e-05
1.458400e+01 -1.542689e-02 1.542732e-02 4.328333e-04 2.145746e-05
1.458800e+01 3.410502e-02 -3.410463e-02 3.822528e-04 2.203373e-05
1.459200e+01 -6.761420e-02 6.761447e-02 2.690727e-04 1.881437e-05
1.459600e+01 -5.218880e-02 5.218894e-02 1.344180e-04 1.330674e-06
1.460000e+01 1.844306e-02 -1.844302e-02 4.280045e-05 -1.531517e-05
1.460400e+01 5.556008e-02 -5.556007e-02 1.155866e-05 -1.732526e-05
1.460800e+01 7.604850e-02 -7.604848e-02 2.207803e-05 -2.386708e-05
1.461200e+01 8.136247e-02 -8.136244e-02 2.653557e-05 -1.086829e-05
1.461600e+01 -3.821069e-02 3.821074e-02 4.757811e-05 2.681449e-05
1.462000e+01 -8.080865e-02 8.080867e-02 1.948467e-05 4.966226e-06
1.462400e+01 -7.994487e-02 7.994484e-02 -3.119472e-05 -2.875568e-05
1.462800e+01 -7.230292e-02 7.230292e-02 -2.369492e-07 8.413293e-06
1.463200e+01 -4.859125e-02 4.859132e-02 6.336193e-05 5.158076e-05
1.463600e+01 1.791008e-02 -1.791003e-02 5.507452e-05 4.238836e-05
1.464000e+01 4.723632e-02 -4.723632e-02 2.253746e-06 2.934681e-05
1.464400e+01 9.047203e-02 -9.047208e-02 -5.884410e-05 -1.729564e-06
1.464800e+01 9.819593e-02 -9.819603e-02 -9.958369e-05 -3.355142e-05
1.465200e+01 -8.122043e-02 8.122036e-02 -7.512987e-05 -2.486759e-05
1.465600e+01 -1.244772e-02 1.244773e-02 1.182823e-05 3.471324e-05
1.466000e+01 -8.837787e-02 8.837791e-02 4.225759e-05 2.987597e-05
1.466400e+01 -8.247347e-02 8.247353e-02 5.675527e-05 -1.889057e-06
1.466800e+01 7.203662e-02 -7.203658e-02 3.474361e-05 2.518866e-07
1.467200e+01 8.193386e-02 -8.193384e-02 2.117504e-05 4.567567e-06
1.467600e+01 7.624561e-02 -7.624560e-02 1.021902e-05 6.577995e-06
1.468000e+01 9.541568e-02 -9.541570e-02 -1.919694e-05 -3.042650e-06
1.468400e+01 9.025037e-02 -9.025038e-02 -1.545284e-05 -7.965960e-06
1.468800e+01 8.854440e-02 -8.854442e-02 -1.378530e-05 -7.186080e-06
1.469200e+01 7.838508e-02 -7.838511e-02 -3.895672e-05 -2.959399e-06
1.469600e+01 6.394173e-02 -6.394175e-02 -2.665842e-05 1.997808e-05
1.470000e+01 -4.552033e-02 4.552031e-02 -2.081641e-05 1.208931e-05
1.470400e+01 -6.127871e-02 6.127871e-02 -2.110423e-06 -1.702994e-05
1.470800e+01 -7.263960e-02 7.263960e-02 2.478421e-06 -7.531918e-06
1.471200e+01 6.664942e-02 -6.664942e-02 2.598379e-06 1.577423e-05
1.471600e+01 7.404721e-02 -7.404724e-02 -2.904699e-05 -8.629644e-06
1.472000e+01 6.369273e-02 -6.369277e-02 -4.813622e-05 -2.855545e-05
1.472400e+01 -4.327455e-02 4.327452e-02 -3.314731e-05 -2.480321e-06
1.472800e+01 -5.704096e-02 5.704094e-02 -2.202290e-05 -4.839584e-06
1.473200e+01 6.396061e-02 -6.396064e-02 -3.354617e-05 -2.190260e-05
1.473600e+01 5.796040e-02 -5.796045e-02 -4.841731e-05 -1.305944e-05
1.474000e+01 4.044913e-02 -4.044916e-02 -3.009622e-05 2.064707e-05
1.474400e+01 1.991294e-02 -1.991299e-02 -5.033610e-05 5.110913e-06
1.474800e+01 3.825370e-03 -3.825469e-03 -9.976421e-05 -4.691699e-05
1.475200e+01 -2.290173e-02 2.290162e-02 -1.169880e-04 -4.071891e-05
1.475600e+01 -4.564860e-02 4.564851e-02 -8.661493e-05 1.654172e-05
1.476000e+01 5.789028e-02 -5.789034e-02 -5.694807e-05 1.822983e-05
1.476400e+01 4.056659e-02 -4.056664e-02 -5.357115e-05 -3.023162e-05
1.476800e+01 -1.833006e-02 1.832997e-02 -8.682205e-05 -3.513280e-05
1.477200e+01 4.053308e-02 -4.053318e-02 -1.027546e-04 -1.430692e-05
1.477600e+01 1.819280e-02 -1.819295e-02 -1.569371e-04 -2.560744e-05
1.478000e+01 -8.728739e-03 8.728545e-03 -1.936412e-04 -1.791195e-05
1.478400e+01 3.965317e-02 -3.965330e-02 -1.323343e-04 3.220889e-05
1.478800e+01 5.387264e-03 -5.387346e-03 -8.184392e-05 3.154575e-05
1.479200e+01 -1.312571e-02 1.312559e-02 -1.206648e-04 -6.832795e-06
1.479600e+01 4.085764e-02 -4.085776e-02 -1.237174e-04 8.184119e-07
1.480000e+01 1.445138e-02 -1.445151e-02 -1.342036e-04 1.125019e-05
1.480400e+01 -1.734980e-02 1.734967e-02 -1.287039e-04 1.065814e-05
1.480800e+01 5.170988e-02 -5.171000e-02 -1.164840e-04 9.971952e-06
1.481200e+01 1.445066e-02 -1.445080e-02 -1.388907e-04 -6.805069e-06
1.481600e+01 4.881337e-03 -4.881498e-03 -1.613593e-04 8.425039e-06
1.482000e+01 1.222062e-03 -1.222235e-03 -1.730621e-04 3.342688e-05
1.482400e+01 1.888343e-04 -1.889981e-04 -1.637707e-04 3.103788e-05
1.482800e+01 -3.730004e-03 3.729845e-03 -1.594092e-04 -2.250015e-06
1.483200e+01 3.484273e-02 -3.484291e-02 -1.825872e-04 -2.262086e-05
1.483600e+01 1.108245e-02 -1.108265e-02 -1.936937e-04 -1.708765e-05
1.484000e+01 4.075443e-03 -4.075611e-03 -1.679550e-04 -5.706136e-08
1.484400e+01 -9.834212e-03 9.834050e-03 -1.619177e-04 -1.193345e-05
1.484800e+01 9.856916e-03 -9.857082e-03 -1.657889e-04 -3.240843e-05
1.485200e+01 -2.085831e-03 2.085714e-03 -1.165847e-04 -9.249383e-06
1.485600e+01 5.261063e-03 -5.261100e-03 -3.703297e-05 3.224440e-05
1.486000e+01 -1.497615e-02 1.497615e-02 2.771066e-06 4.643366e-05
1.486400e+01 -1.134467e-02 1.134468e-02 8.230199e-06 3.570447e-05
1.486800e+01 2.633952e-02 -2.633952e-02 5.972176e-06 2.016477e-05
1.487200e+01 -8.275511e-04 8.275585e-04 7.356852e-06 4.099290e-06
1.487600e+01 5.740550e-03 -5.740520e-03 3.026548e-05 1.183710e-05
1.488000e+01 1.383977e-02 -1.383974e-02 3.060485e-05 1.383274e-05
1.488400e+01 2.434247e-02 -2.434243e-02 3.822879e-05 5.831237e-06
1.488800e+01 -2.707425e-02 2.707431e-02 6.267930e-05 -8.490884e-06
1.489200e+01 -2.028170e-02 2.028177e-02 6.519009e-05 -1.210137e-05
1.489600e+01 2.056281e-02 -2.056274e-02 6.660145e-05 -7.554264e-06
1.490000e+01 -2.642053e-02 2.642062e-02 9.116670e-05 1.824021e-05
1.490400e+01 -1.392694e-02 1.392703e-02 8.625846e-05 6.862174e-06
1.490800e+01 2.929324e-02 -2.929311e-02 1.228755e-04 2.659494e-06
1.491200e+01 6.351453e-03 -6.351272e-03 1.808698e-04 3.866592e-05
1.491600e+01 -5.218898e-02 5.218910e-02 1.182247e-04 2.038215e-05
1.492000e+01 5.723796e-02 -5.723789e-02 7.150708e-05 -1.134997e-05
1.492400e+01 5.789624e-02 -5.789614e-02 1.021723e-04 1.205159e-05
1.492800e+01 2.101182e-02 -2.101168e-02 1.451188e-04 2.551070e-05
1.493200e+01 -2.499328e-02 2.499340e-02 1.252033e-04 3.238790e-07
1.493600e+01 -2.680872e-02 2.680880e-02 7.693497e-05 -4.969271e-05
1.494000e+01 -3.533319e-02 3.533325e-02 6.037821e-05 -7.412612e-05
1.494400e+01 2.147388e-02 -2.147379e-02 8.639634e-05 -4.764996e-05
1.494800e+01 -3.629388e-03 3.629531e-03 1.429312e-04 4.680377e-06
1.495200e+01 2.631877e-02 -2.631862e-02 1.513766e-04 1.442159e-05
1.495600e+01 -2.473796e-02 2.473810e-02 1.397254e-04 1.325823e-05
1.496000e+01 -2.694090e-03 2.694216e-03 1.259793e-04 2.000340e-05
1.496400e+01 4.097256e-02 -4.097247e-02 8.129583e-05 -3.837039e-06
1.496800e+01 2.890777e-02 -2.890769e-02 7.361874e-05 -1.107736e-05
1.497200e+01 2.143533e-02 -2.143520e-02 1.247631e-04 1.948581e-05
1.497600e+01 1.550120e-02 -1.550107e-02 1.289046e-04 -5.558270e-06
1.498000e+01 1.456300e-03 -1.456238e-03 6.215081e-05 -3.917441e-05
1.498400e+01 -2.054484e-02 2.054488e-02 3.734072e-05 -1.233083e-05
1.498800e+01 -5.022392e-02 5.022402e-02 9.882305e-05 1.266247e-05
1.499200e+01 8.666218e-02 -8.666207e-02 1.062824e-04 7.318373e-06
1.499600e+01 4.318795e-02 -4.318784e-02 1.082432e-04 1.278988e-05
1.500000e+01 -1.364606e-02 1.364616e-02 9.763741e-05 8.113582e-06
1.500400e+01 -3.840675e-02 3.840683e-02 7.726873e-05 -2.009093e-05
1.500800e+01 -7.377351e-02 7.377358e-02 7.281202e-05 -3.550111e-05
1.501200e+01 -1.152728e-01 1.152729e-01 8.294493e-05 -6.198317e-06
1.501600e+01 -1.604579e-01 1.604580e-01 1.030084e-04 3.847943e-05
1.502000e+01 -2.073349e-01 2.073350e-01 9.579187e-05 4.197105e-05
1.502400e+01 2.539882e-01 -2.539882e-01 5.495230e-05 9.016406e-06
1.502800e+01 -1.802916e-01 1.802916e-01 4.365142e-05 -2.640877e-05
1.503200e+01 -2.285294e-01 2.285294e-01 5.385206e-05 -2.917572e-05
1.503600e+01 2.753641e-01 -2.753640e-01 3.686261e-05 -2.834079e-05
1.504000e+01 1.978360e-01 -1.978360e-01 2.416559e-05 -1.664321e-05
1.504400e+01 -1.281370e-01 1.281370e-01 6.910407e-05 1.345500e-05
1.504800e+01 -1.780175e-01 1.780176e-01 1.211599e-04 1.953644e-05
1.505200e+01 2.284275e-01 -2.284274e-01 1.028784e-04 -2.523544e-06
1.505600e+01 1.531001e-01 -1.531001e-01 4.510713e-05 -1.834904e-05
1.506000e+01 -8.728715e-02 8.728718e-02 3.871507e-05 5.507189e-06
1.506400e+01 -1.378272e-01 1.378272e-01 4.926727e-05 1.477839e-05
1.506800e+01 1.906478e-01 -1.906478e-01 5.045695e-06 -2.222495e-05
1.507200e+01 1.182221e-01 -1.182221e-01 -4.259351e-06 -2.319970e-05
1.507600e+01 5.323284e-02 -5.323276e-02 7.956993e-05 1.593601e-05
1.508000e+01 2.202925e-02 -2.202912e-02 1.233629e-04 1.888444e-05
1.508400e+01 2.470038e-02 -2.470030e-02 7.476028e-05 -3.997450e-06
1.508800e+01 -2.460256e-02 2.460261e-02 5.292603e-05 3.108074e-06
1.509200e+01 7.740549e-02 -7.740542e-02 6.989038e-05 2.601218e-05
1.509600e+01 1.711007e-02 -1.711003e-02 4.332785e-05 4.624670e-06
1.510000e+01 -3.092403e-02 3.092405e-02 1.643518e-05 -5.578683e-05
1.510400e+01 -7.548656e-02 7.548661e-02 4.947450e-05 -3.392986e-05
1.510800e+01 7.055449e-02 -7.055439e-02 1.043754e-04 1.694016e-05
1.511200e+01 7.552441e-02 -7.552432e-02 9.254404e-05 2.090633e-05
1.511600e+01 -3.311466e-02 3.311469e-02 3.019196e-05 -3.321563e-06
1.512000e+01 -7.268275e-02 7.268278e-02 2.192012e-05 -1.385532e-05
1.512400e+01 -1.037639e-01 1.037640e-01 6.928220e-05 1.418917e-05
1.512800e+01 -1.301402e-01 1.301402e-01 2.690300e-05 2.127395e-06
1.513200e+01 1.406253e-01 -1.406253e-01 -5.556450e-06 -2.244790e-05
1.513600e+01 1.245572e-01 -1.245571e-01 1.021008e-04 3.020794e-05
1.514000e+01 9.456291e-02 -9.456278e-02 1.283940e-04 3.800390e-05
1.514400e+01 5.931996e-02 -5.931992e-02 3.835465e-05 -5.209820e-05
1.514800e+01 -1.756642e-02 1.756648e-02 5.978589e-05 -3.102354e-05
1.515200e+01 -5.847895e-02 5.847908e-02 1.342903e-04 3.056851e-05
1.515600e+01 6.267727e-02 -6.267714e-02 1.328614e-04 1.132768e-05
1.516000e+01 7.173269e-02 -7.173264e-02 4.767474e-05 -4.570361e-06
1.516400e+01 -3.039931e-02 3.039934e-02 2.741715e-05 1.666126e-05
1.516800e+01 -6.895664e-02 6.895671e-02 6.719035e-05 3.672524e-06
1.517200e+01 1.032067e-01 -1.032067e-01 4.458606e-05 -2.991428e-05
1.517600e+01 5.720678e-02 -5.720677e-02 9.424625e-06 -5.397250e-05
1.518000e+01 -1.961215e-02 1.961219e-02 4.280410e-05 -5.497385e-05
1.518400e+01 -4.979239e-02 4.979246e-02 6.409481e-05 -2.602774e-05
1.518800e+01 8.834391e-02 -8.834383e-02 7.974065e-05 -4.407002e-06
1.519200e+01 -4.323796e-02 4.323804e-02 7.872136e-05 -2.186444e-06
1.519600e+01 6.997538e-02 -6.997533e-02 4.402002e-05 -9.070674e-06
1.520000e+01 -4.022124e-02 4.022126e-02 1.797351e-05 9.986110e-06
1.520400e+01 -6.509230e-02 6.509234e-02 4.166245e-05 4.409080e-05
1.520800e+01 -7.473607e-02 7.473613e-02 6.053416e-05 4.917502e-05
1.521200e+01 -9.230560e-02 9.230567e-02 6.874098e-05 3.486882e-05
1.521600e+01 1.080422e-01 -1.080421e-01 6.591846e-05 1.789057e-06
1.522000e+01 5.194896e-03 -5.194834e-03 6.263056e-05 -1.196999e-05
1.522400e+01 6.422842e-02 -6.422839e-02 3.125310e-05 -2.901642e-05
1.522800e+01 -5.785352e-02 5.785350e-02 -2.341673e-05 -4.338041e-05
1.523200e+01 -6.796981e-03 6.796996e-03 1.415148e-05 -1.039368e-05
1.523600e+01 9.100370e-02 -9.100362e-02 8.851761e-05 2.953347e-05
1.524000e+01 -5.913500e-02 5.913510e-02 1.044944e-04 3.472478e-05
1.524400e+01 -6.956673e-02 6.956682e-02 9.053117e-05 4.808089e-05
1.524800e+01 -3.136983e-03 3.137052e-03 6.943208e-05 5.559251e-05
1.525200e+01 8.428450e-02 -8.428443e-02 6.541123e-05 2.294117e-05
1.525600e+01 -9.069202e-02 9.069210e-02 7.885521e-05 -7.439860e-06
1.526000e+01 -6.346700e-02 6.346706e-02 6.069914e-05 -1.656238e-05
1.526400e+01 -7.225826e-02 7.225825e-02 -8.423012e-06 -3.426413e-05
1.526800e+01 8.823723e-02 -8.823722e-02 1.015803e-05 -2.356883e-05
1.527200e+01 -9.152941e-02 9.152946e-02 5.238724e-05 1.512913e-05
1.527600e+01 -9.858682e-04 9.859293e-04 6.111086e-05 4.232029e-05
1.528000e+01 5.158744e-02 -5.158739e-02 4.895835e-05 3.103371e-05
1.528400e+01 8.140394e-02 -8.140390e-02 3.987368e-05 1.442805e-05
1.528800e+01 3.713350e-02 -3.713350e-02 -1.946164e-06 -1.812423e-05
1.529200e+01 3.345306e-02 -3.345300e-02 5.336522e-05 -1.601491e-05
1.529600e+01 7.269242e-02 -7.269233e-02 8.532363e-05 -8.315696e-06
1.530000e+01 5.047687e-02 -5.047683e-02 3.944768e-05 -3.137431e-05
1.530400e+01 -2.947959e-02 2.947962e-02 2.184936e-05 -1.282964e-05
1.530800e+01 -5.158358e-02 5.158365e-02 6.303540e-05 2.622307e-05
1.531200e+01 -7.602417e-02 7.602422e-02 4.632494e-05 2.727091e-05
1.531600e+01 -9.956677e-02 9.956679e-02 1.670105e-05 3.310575e-06
1.532000e+01 1.239152e-01 -1.239152e-01 1.011513e-05 -1.068303e-05
1.532400e+01 9.342802e-02 -9.342803e-02 -1.288630e-05 -1.536357e-05
1.532800e+01 6.017619e-02 -6.017618e-02 1.291491e-05 3.276456e-06
1.533200e+01 3.254639e-02 -3.254633e-02 5.786509e-05 4.553573e-05
1.533600e+01 -1.824989e-02 1.824992e-02 2.895811e-05 1.687927e-05
1.534000e+01 -4.195512e-02 4.195514e-02 2.087418e-05 -4.927055e-05
1.534400e+01 -6.953607e-02 6.953611e-02 4.160250e-05 -4.641176e-05
1.534800e+01 -3.450790e-02 3.450797e-02 7.135744e-05 1.091376e-05
1.535200e+01 2.813355e-03 -2.813300e-03 5.465451e-05 3.540606e-05
1.535600e+01 8.463293e-02 -8.463295e-02 -1.583122e-05 -3.158299e-06
1.536000e+01 -5.530276e-02 5.530275e-02 -7.267854e-06 4.145549e-06
1.536400e+01 -7.469518e-02 7.469521e-02 3.839193e-05 2.147233e-05
1.536800e+01 -8.385392e-02 8.385400e-02 7.128294e-05 1.446137e-05
1.537200e+01 -6.868725e-02 6.868734e-02 9.461810e-05 2.489419e-05
1.537600e+01 -5.867396e-02 5.867407e-02 1.065186e-04 4.170145e-05
1.538000e+01 7.301401e-02 -7.301395e-02 5.834233e-05 9.819117e-06
1.538400e+01 7.517354e-02 -7.517353e-02 5.600935e-06 -2.463721e-05
1.538800e+01 8.832083e-02 -8.832083e-02 -5.562392e-06 -2.501347e-05
1.539200e+01 -8.265562e-02 8.265565e-02 3.388348e-05 -2.719024e-06
1.539600e+01 -8.338471e-02 8.338475e-02 3.951943e-05 2.492937e-05
1.540000e+01 -7.186516e-02 7.186514e-02 -1.215639e-05 8.252062e-06
1.540400e+01 -5.723022e-02 5.723018e-02 -3.495902e-05 -3.783993e-05
1.540800e+01 9.184742e-02 -9.184742e-02 -6.592020e-06 -3.100101e-05
1.541200e+01 -6.517215e-02 6.517215e-02 -3.218872e-06 -1.758233e-05
1.541600e+01 4.729248e-02 -4.729254e-02 -5.663668e-05 -4.017562e-05
1.542000e+01 -6.061634e-02 6.061630e-02 -4.360528e-05 -2.478021e-05
1.542400e+01 -5.206623e-02 5.206619e-02 -4.380567e-05 1.163024e-05
1.542800e+01 -4.405063e-02 4.405055e-02 -8.177196e-05 1.154039e-05
1.543200e+01 -4.632212e-02 4.632209e-02 -3.296112e-05 9.828023e-06
1.543600e+01 -3.816553e-02 3.816556e-02 3.560684e-05 1.611216e-05
1.544000e+01 -3.923214e-02 3.923216e-02 1.559288e-05 4.121860e-06
1.544400e+01 -4.645941e-02 4.645938e-02 -2.734067e-05 6.072128e-06
1.544800e+01 -4.323359e-02 4.323350e-02 -9.097224e-05 -1.810217e-05
1.545200e+01 4.275408e-02 -4.275420e-02 -1.213619e-04 -2.823958e-05
1.545600e+01 4.220393e-02 -4.220403e-02 -9.476295e-05 -3.936753e-06
1.546000e+01 -3.977620e-02 3.977615e-02 -5.522593e-05 2.957079e-05
1.546400e+01 4.060377e-02 -4.060377e-02 5.491172e-06 5.034816e-05
1.546800e+01 4.048557e-02 -4.048553e-02 4.408867e-05 4.121302e-05
1.547200e+01 3.893129e-02 -3.893126e-02 2.919160e-05 -3.755820e-06
1.547600e+01 4.013983e-02 -4.013987e-02 -3.681463e-05 -4.318751e-05
1.548000e+01 4.527699e-02 -4.527702e-02 -3.005439e-05 -2.657503e-05
1.548400e+01 -3.642845e-02 3.642847e-02 2.485552e-05 8.557296e-06
1.548800e+01 5.600818e-02 -5.600814e-02 4.368894e-05 6.365720e-06
1.549200e+01 8.697516e-02 -8.697516e-02 1.044434e-06 -1.958340e-05
1.549600e+01 -7.184898e-02 7.184898e-02 -6.748887e-06 -1.452383e-05
1.550000e+01 3.555294e-02 -3.555291e-02 3.042260e-05 -7.485539e-06
1.550400e+01 -4.598926e-02 4.598935e-02 9.547154e-05 2.954803e-06
1.550800e+01 -3.735101e-02 3.735110e-02 9.325100e-05 2.928353e-05
1.551200e+01 7.514264e-02 -7.514257e-02 7.143904e-05 3.416297e-05
1.551600e+01 7.080426e-02 -7.080418e-02 8.073447e-05 -4.553690e-06
1.552000e+01 6.419497e-02 -6.419489e-02 8.171574e-05 -2.297465e-05
1.552400e+01 5.723140e-02 -5.723134e-02 6.071296e-05 6.155376e-06
1.552800e+01 -4.792933e-02 4.792939e-02 5.888191e-05 1.643344e-05
1.553200e+01 -5.355528e-02 5.355533e-02 5.298181e-05 2.720560e-07
1.553600e+01 -4.858909e-02 4.858915e-02 5.491005e-05 -1.332194e-05
1.554000e+01 3.459373e-02 -3.459369e-02 4.413857e-05 -1.116013e-05
1.554400e+01 4.456747e-02 -4.456744e-02 3.405578e-05 -1.523486e-05
1.554800e+01 -5.440399e-02 5.440404e-02 5.212324e-05 -9.868491e-06
1.555200e+01 -4.281500e-02 4.281506e-02 6.394041e-05 6.047010e-06
1.555600e+01 5.573739e-02 -5.573735e-02 4.090862e-05 2.038395e-06
1.556000e+01 -4.405886e-02 4.405889e-02 3.211670e-05 1.677236e-05
1.556400e+01 -2.803631e-02 2.803630e-02 -7.154682e-06 -7.335240e-06
1.556800e+01 4.026988e-02 -4.026996e-02 -8.115473e-05 -5.057780e-05
1.557200e+01 3.615441e-02 -3.615448e-02 -7.009574e-05 -2.289659e-05
1.557600e+01 -3.705380e-02 3.705376e-02 -4.714584e-05 1.514436e-05
1.558000e+01 -3.204167e-02 3.204153e-02 -1.451074e-04 1.782080e-05
1.558400e+01 3.575520e-02 -3.575550e-02 -3.052206e-04 -3.384152e-06
1.558800e+01 -1.636416e-02 1.636375e-02 -4.078337e-04 -8.125055e-06
1.559200e+01 8.934646e-03 -8.935110e-03 -4.642439e-04 2.620097e-06
1.559600e+01 3.705158e-03 -3.705428e-03 -2.696408e-04 1.760143e-05
1.560000e+01 -3.884386e-03 3.884436e-03 5.038554e-05 2.076276e-05
1.560400e+01 -3.224079e-03 3.224298e-03 2.194802e-04 -1.766945e-05
1.560800e+01 -4.896116e-03 4.896366e-03 2.502253e-04 -5.601657e-05
1.561200e+01 1.551754e-02 -1.551722e-02 3.221889e-04 -3.536863e-05
1.561600e+01 1.219800e-02 -1.219755e-02 4.492276e-04 3.411554e-05
1.562000e+01 -3.984625e-02 3.984669e-02 4.326497e-04 4.701998e-05
1.562400e+01 -2.877167e-02 2.877200e-02 3.272700e-04 2.320541e-05
1.562800e+01 2.032963e-02 -2.032940e-02 2.275812e-04 2.085295e-06
1.563200e+01 2.706816e-02 -2.706800e-02 1.604995e-04 -5.456308e-06
1.563600e+01 -2.451997e-02 2.452004e-02 7.133033e-05 -2.352333e-05
1.564000e+01 -2.759915e-02 2.759918e-02 3.594334e-05 -8.748445e-06
1.564400e+01 -4.484311e-02 4.484317e-02 5.474010e-05 3.464448e-05
1.564800e+01 5.101493e-03 -5.101440e-03 5.324396e-05 2.184494e-05
1.565200e+01 -3.737915e-02 3.737920e-02 4.273823e-05 -9.285119e-06
1.565600e+01 3.409634e-02 -3.409635e-02 -9.280739e-06 -2.515925e-05
1.566000e+01 -4.444408e-03 4.444354e-03 -5.392647e-05 -3.246537e-05
1.566400e+01 -2.639694e-02 2.639694e-02 1.198772e-06 -1.262357e-05
1.566800e+01 2.183512e-02 -2.183505e-02 6.983172e-05 2.041961e-05
1.567200e+01 1.621905e-02 -1.621902e-02 3.107738e-05 2.196326e-05
1.567600e+01 8.176778e-03 -8.176863e-03 -8.523973e-05 -1.387848e-05
1.568000e+01 -8.983239e-03 8.983120e-03 -1.184245e-04 -2.072946e-05
1.568400e+01 -1.613401e-02 1.613395e-02 -5.706171e-05 2.057071e-05
1.568800e+01 3.181760e-02 -3.181762e-02 -1.372827e-05 3.624253e-05
1.569200e+01 2.378174e-02 -2.378177e-02 -2.739302e-05 -9.666045e-06
1.569600e+01 -2.330195e-02 2.330191e-02 -4.766642e-05 -4.290574e-05
1.570000e+01 -1.820860e-02 1.820857e-02 -3.290470e-05 -1.061909e-05
1.570400e+01 -1.614047e-02 1.614041e-02 -5.742905e-05 -1.743203e-05
1.570800e+01 -1.672791e-02 1.672786e-02 -4.890142e-05 -1.466013e-05
1.571200e+01 2.234329e-02 -2.234329e-02 -2.148408e-06 4.660009e-05
1.571600e+01 2.147521e-02 -2.147517e-02 4.408913e-05 7.852901e-05
1.572000e+01 -1.645735e-02 1.645735e-02 3.921334e-06 1.984213e-05
1.572400e+01 -2.062094e-02 2.062087e-02 -6.935866e-05 -4.291783e-05
1.572800e+01 -2.511822e-02 2.511813e-02 -9.368582e-05 -3.387569e-05
1.573200e+01 2.019759e-02 -2.019765e-02 -6.274050e-05 9.320100e-06
1.573600e+01 2.123558e-02 -2.123562e-02 -3.731792e-05 2.086571e-05
1.574000e+01 1.724564e-02 -1.724571e-02 -6.069218e-05 1.376767e-05
1.574400e+01 -1.008442e-02 1.008440e-02 -1.252152e-05 4.470181e-05
1.574800e+01 -1.988867e-02 1.988874e-02 7.004666e-05 3.551939e-05
1.575200e+01 -1.179652e-02 1.179657e-02 4.239928e-05 -8.683080e-06
1.575600e+01 -1.249142e-02 1.249138e-02 -3.837957e-05 -3.276492e-05
1.576000e+01 2.348750e-02 -2.348759e-02 -8.735988e-05 -4.649618e-05
1.576400e+01 1.872678e-02 -1.872687e-02 -9.136373e-05 -3.686277e-05
1.576800e+01 1.160840e-02 -1.160844e-02 -3.884514e-05 -7.659773e-06
1.577200e+01 -5.151336e-03 5.151343e-03 6.856199e-06 2.250952e-06
1.577600e+01 -1.254508e-02 1.254505e-02 -3.235892e-05 -4.240208e-06
1.578000e+01 1.848903e-02 -1.848912e-02 -9.664823e-05 -1.576110e-05
1.578400e+01 1.406664e-02 -1.406674e-02 -1.067504e-04 -1.346767e-05
1.578800e+01 -1.239759e-02 1.239751e-02 -7.356599e-05 8.441063e-06
1.579200e+01 -2.764268e-02 2.764265e-02 -2.348146e-05 2.140308e-05
1.579600e+01 2.842171e-02 -2.842174e-02 -3.243042e-05 -3.562974e-06
1.580000e+01 2.742156e-02 -2.742166e-02 -9.735391e-05 -4.167265e-05
1.580400e+01 2.579014e-02 -2.579027e-02 -1.311610e-04 -2.540798e-05
1.580800e+01 2.394549e-02 -2.394561e-02 -1.191431e-04 1.427704e-05
1.581200e+01 -2.232894e-02 2.232882e-02 -1.130109e-04 1.543563e-07
1.581600e+01 -1.810224e-02 1.810215e-02 -9.827531e-05 1.418833e-05
1.582000e+01 -7.695803e-03 7.695725e-03 -7.805294e-05 4.423274e-05
1.582400e+01 2.296536e-02 -2.296546e-02 -1.064850e-04 2.243553e-05
1.582800e+01 2.339395e-02 -2.339406e-02 -1.155213e-04 1.831720e-06
1.583200e+01 2.267083e-02 -2.267096e-02 -1.297168e-04 -3.252354e-06
1.583600e+01 -2.330725e-02 2.330710e-02 -1.525671e-04 5.879688e-06
1.584000e+01 -1.640278e-02 1.640263e-02 -1.507126e-04 2.295402e-05
1.584400e+01 -1.061736e-02 1.061719e-02 -1.753604e-04 -7.676352e-06
1.584800e+01 -3.109208e-02 3.109196e-02 -1.283052e-04 3.692339e-06
1.585200e+01 -5.405440e-03 5.405327e-03 -1.134228e-04 3.048898e-05
1.585600e+01 7.536272e-04 -7.538032e-04 -1.759785e-04 5.310010e-06
1.586000e+01 8.187956e-03 -8.188135e-03 -1.787477e-04 -1.817578e-05
1.586400e+01 9.126716e-03 -9.126845e-03 -1.284064e-04 1.330734e-05
1.586800e+01 -2.363361e-03 2.363246e-03 -1.143949e-04 1.436621e-05
1.587200e+01 -8.674268e-03 8.674152e-03 -1.158253e-04 -6.541573e-06
1.587600e+01 9.717367e-03 -9.717499e-03 -1.319577e-04 2.782181e-07
1.588000e+01 5.614992e-03 -5.615117e-03 -1.254076e-04 6.027561e-06
1.588400e+01 -1.814251e-03 1.814141e-03 -1.095484e-04 -1.598641e-05
1.588800e+01 -1.599230e-02 1.599220e-02 -9.796480e-05 -1.363942e-05
1.589200e+01 2.696214e-02 -2.696222e-02 -8.095011e-05 7.403426e-06
1.589600e+01 -9.811339e-03 9.811282e-03 -5.628013e-05 1.708643e-06
1.590000e+01 -1.574049e-02 1.574048e-02 -4.338015e-06 -2.388310e-06
1.590400e+01 -3.136421e-02 3.136423e-02 1.752915e-05 -1.084381e-05
1.590800e+01 -4.452692e-02 4.452687e-02 -5.060244e-05 -2.412420e-05
1.591200e+01 5.797633e-02 -5.797640e-02 -6.721011e-05 -2.238065e-05
1.591600e+01 3.827540e-02 -3.827539e-02 1.926847e-05 1.479528e-05
1.592000e+01 2.385248e-02 -2.385241e-02 7.253412e-05 1.902001e-05
1.592400e+01 1.353880e-02 -1.353870e-02 9.968821e-05 -4.733453e-06
1.592800e+01 3.598572e-02 -3.598561e-02 1.132269e-04 -8.308938e-06
1.593200e+01 -2.230752e-02 2.230763e-02 1.059321e-04 -2.675563e-06
1.593600e+01 -1.614107e-02 1.614117e-02 9.475277e-05 3.663347e-06
1.594000e+01 4.375863e-03 -4.375743e-03 1.199448e-04 4.206726e-06
1.594400e+01 1.566292e-02 -1.566276e-02 1.560673e-04 8.441386e-06
1.594800e+01 -1.532968e-02 1.532982e-02 1.356361e-04 -9.021030e-06
1.595200e+01 1.665536e-02 -1.665523e-02 1.302872e-04 -1.330733e-05
1.595600e+01 4.178016e-02 -4.178001e-02 1.466600e-04 3.477237e-06
1.596000e+01 -3.414547e-02 3.414562e-02 1.562081e-04 1.217211e-05
1.596400e+01 -3.457347e-02 3.457361e-02 1.425045e-04 2.550550e-05
1.596800e+01 3.494149e-02 -3.494136e-02 1.325277e-04 1.399507e-05
1.597200e+01 2.382487e-02 -2.382473e-02 1.428417e-04 -3.308391e-05
1.597600e+01 -8.396391e-03 8.396546e-03 1.555353e-04 -1.946917e-05
1.598000e+01 -4.377706e-03 4.377827e-03 1.212488e-04 -9.444645e-06
1.598400e+01 1.386043e-03 -1.385942e-03 1.012468e-04 -1.962844e-05
1.598800e+01 1.012070e-02 -1.012059e-02 1.063437e-04 -2.972970e-05
1.599200e+01 1.649597e-02 -1.649586e-02 1.072672e-04 -3.517836e-05
1.599600e+01 -2.255234e-02 2.255248e-02 1.437457e-04 -1.335670e-05
1.600000e+01 -1.740103e-02 1.740117e-02 1.472667e-04 -5.732530e-06
1.600400e+01 1.504861e-02 -1.504855e-02 6.105249e-05 -3.148878e-05
1.600800e+01 1.724965e-02 -1.724958e-02 7.080371e-05 4.224567e-06
1.601200e+01 2.134614e-02 -2.134600e-02 1.325733e-04 8.397583e-06
1.601600e+01 2.505135e-02 -2.505118e-02 1.661195e-04 7.920749e-06
1.602000e+01 -2.863294e-02 2.863306e-02 1.214173e-04 -2.626643e-06
1.602400e+01 -2.368232e-02 2.368242e-02 1.040727e-04 -1.689246e-05
1.602800e+01 1.950831e-02 -1.950819e-02 1.139751e-04 4.821162e-06
1.603200e+01 2.225102e-02 -2.225093e-02 9.194841e-05 6.930130e-06
1.603600e+01 2.547370e-02 -2.547362e-02 7.953506e-05 -1.132425e-05
1.604000e+01 -2.873806e-02 2.873816e-02 9.482629e-05 -1.391854e-05
1.604400e+01 -2.447963e-02 2.447976e-02 1.208926e-04 4.097553e-06
1.604800e+01 -2.053556e-02 2.053565e-02 8.881550e-05 -1.390504e-05
1.605200e+01 1.856576e-02 -1.856577e-02 -6.947593e-06 -4.788958e-05
1.605600e+01 1.913354e-02 -1.913354e-02 -8.895725e-06 -4.528535e-06
1.606000e+01 -2.246424e-02 2.246434e-02 9.676797e-05 5.395342e-05
1.606400e+01 -1.839204e-02 1.839219e-02 1.502982e-04 4.745165e-05
1.606800e+01 -1.642188e-02 1.642198e-02 1.075305e-04 -6.404151e-06
1.607200e+01 1.515343e-02 -1.515338e-02 5.678222e-05 -1.855427e-05
1.607600e+01 1.446538e-02 -1.446535e-02 3.592778e-05 1.853098e-05
1.608000e+01 1.546997e-02 -1.546991e-02 5.228770e-05 2.663773e-05
1.608400e+01 1.849307e-02 -1.849304e-02 3.234247e-05 -2.391903e-05
1.608800e+01 2.202176e-02 -2.202168e-02 7.719099e-05 5.213975e-06
1.609200e+01 2.555005e-02 -2.554992e-02 1.320109e-04 6.717121e-05
1.609600e+01 2.836839e-02 -2.836828e-02 1.087213e-04 5.683728e-05
1.610000e+01 2.984907e-02 -2.984901e-02 5.292526e-05 8.948761e-06
1.610400e+01 2.952539e-02 -2.952535e-02 3.794225e-05 -2.297458e-05
1.610800e+01 2.698253e-02 -2.698250e-02 2.192131e-05 -2.275562e-05
1.611200e+01 -2.177496e-02 2.177499e-02 3.045757e-05 4.387009e-06
1.611600e+01 -2.609837e-02 2.609843e-02 5.608066e-05 8.060181e-06
1.612000e+01 -2.556577e-02 2.556585e-02 7.403739e-05 6.913443e-06
1.612400e+01 1.966539e-02 -1.966532e-02 6.787974e-05 2.196568e-05
1.612800e+01 2.797263e-02 -2.797256e-02 7.357429e-05 2.699870e-05
1.613200e+01 -2.667639e-02 2.667648e-02 8.724268e-05 -1.344575e-05
1.613600e+01 -2.714535e-02 2.714542e-02 6.746314e-05 -2.932302e-05
1.614000e+01 2.969175e-03 -2.969120e-03 5.462566e-05 -1.037932e-05
1.614400e+01 3.738572e-02 -3.738564e-02 7.736153e-05 2.061326e-05
1.614800e+01 3.032389e-02 -3.032380e-02 9.008244e-05 3.212966e-05
1.615200e+01 2.509049e-02 -2.509043e-02 5.822434e-05 6.244409e-07
1.615600e+01 1.811208e-02 -1.811204e-02 4.502996e-05 -1.498443e-05
1.616000e+01 -8.050519e-03 8.050541e-03 2.224477e-05 -2.456446e-05
1.616400e+01 -1.861841e-02 1.861845e-02 4.372666e-05 5.574080e-06
1.616800e+01 -2.457763e-02 2.457768e-02 5.463483e-05 1.111578e-05
1.617200e+01 1.283403e-02 -1.283398e-02 5.963012e-05 -5.368436e-06
1.617600e+01 1.416538e-02 -1.416528e-02 1.021296e-04 2.787877e-05
1.618000e+01 -1.611838e-02 1.611846e-02 8.036731e-05 9.874746e-06
1.618400e+01 -2.178959e-02 2.178964e-02 4.722134e-05 -1.836916e-05
1.618800e+01 2.160651e-02 -2.160649e-02 2.374252e-05 -1.646598e-05
1.619200e+01 -2.710755e-02 2.710758e-02 3.045165e-05 6.803554e-07
1.619600e+01 -4.337300e-02 4.337305e-02 5.129907e-05 2.352154e-05
1.620000e+01 -6.105711e-02 6.105718e-02 6.512889e-05 4.029756e-05
1.620400e+01 7.532637e-02 -7.532627e-02 1.006257e-04 3.954539e-05
1.620800e+01 7.143085e-02 -7.143076e-02 9.343802e-05 2.059560e-05
1.621200e+01 4.573452e-02 -4.573447e-02 4.951996e-05 -2.813948e-05
1.621600e+01 -7.863383e-03 7.863411e-03 2.784486e-05 -5.429568e-05
1.622000e+01 -4.171496e-02 4.171500e-02 3.585878e-05 -2.920344e-05
1.622400e+01 -6.045152e-02 6.045160e-02 7.901292e-05 1.344429e-06
1.622800e+01 -6.510938e-02 6.510949e-02 1.104037e-04 1.496554e-05
1.623200e+01 6.181989e-02 -6.181981e-02 8.418027e-05 1.942492e-05
1.623600e+01 -6.022679e-02 6.022683e-02 3.678628e-05 -6.625625e-06
1.624000e+01 -5.982857e-02 5.982860e-02 2.263225e-05 -4.705099e-06
1.624400e+01 -4.274712e-02 4.274718e-02 6.048421e-05 1.524720e-05
1.624800e+01 -4.266059e-02 4.266066e-02 6.507339e-05 -5.793595e-07
1.625200e+01 2.982672e-02 -2.982673e-02 -6.951357e-06 -5.034924e-05
1.625600e+01 1.986394e-02 -1.986394e-02 -6.831579e-06 -2.624874e-05
1.626000e+01 2.872214e-02 -2.872208e-02 6.618955e-05 1.377424e-05
1.626400e+01 5.187755e-02 -5.187745e-02 9.546609e-05 7.473333e-06
1.626800e+01 -4.398093e-02 4.398101e-02 7.612097e-05 5.160543e-06
1.627200e+01 5.515518e-02 -5.515512e-02 5.750715e-05 -6.796181e-06
1.627600e+01 4.282994e-02 -4.282992e-02 1.764219e-05 -2.602170e-05
1.628000e+01 3.872697e-02 -3.872698e-02 -6.526049e-06 -1.542957e-05
1.628400e+01 2.743245e-02 -2.743241e-02 3.936663e-05 2.840106e-05
1.628800e+01 -1.717600e-02 1.717605e-02 5.064840e-05 2.214296e-05
1.629200e+01 -2.874500e-02 2.874502e-02 2.012456e-05 2.662805e-06
1.629600e+01 3.211251e-02 -3.211248e-02 3.588276e-05 4.282119e-06
1.630000e+01 2.289235e-02 -2.289232e-02 3.143407e-05 -3.023562e-06
1.630400e+01 1.701750e-02 -1.701751e-02 -1.573876e-05 3.686509e-06
1.630800e+01 3.700709e-03 -3.700737e-03 -2.761473e-05 1.715950e-05
1.631200e+01 -5.496541e-03 5.496576e-03 3.451555e-05 -1.379807e-06
1.631600e+01 1.853358e-02 -1.853352e-02 5.740139e-05 -4.383302e-05
1.632000e+01 3.875103e-03 -3.875067e-03 3.593000e-05 -3.412672e-05
1.632400e+01 -4.742485e-03 4.742498e-03 1.332175e-05 -2.423694e-05
1.632800e+01 -8.961031e-03 8.961034e-03 3.355093e-06 -1.170879e-05
1.633200e+01 -8.400629e-03 8.400605e-03 -2.424233e-05 4.437753e-06
1.633600e+01 -7.658392e-03 7.658359e-03 -3.281623e-05 1.492552e-06
1.634000e+01 -1.572006e-02 1.572012e-02 6.135591e-05 4.683027e-06
1.634400e+01 -3.755560e-03 3.755641e-03 8.144280e-05 1.366033e-06
1.634800e+01 1.249687e-02 -1.249686e-02 8.971481e-06 -2.494184e-05
1.635200e+01 -3.329671e-02 3.329668e-02 -2.784628e-05 -7.156354e-06
1.635600e+01 -2.053413e-02 2.053411e-02 -1.903578e-05 9.793816e-06
1.636000e+01 -3.095002e-02 3.095000e-02 -1.798487e-05 -1.649532e-05
1.636400e+01 2.868949e-02 -2.868949e-02 -1.288132e-06 -8.528155e-06
1.636800e+01 3.357701e-02 -3.357703e-02 -1.477378e-05 -3.758149e-07
1.637200e+01 3.141228e-02 -3.141230e-02 -2.143358e-05 -1.589270e-06
1.637600e+01 -2.482385e-02 2.482386e-02 1.109208e-05 1.721593e-05
1.638000e+01 -2.442257e-02 2.442259e-02 2.319521e-05 2.294395e-05
1.638400e+01 -1.886007e-02 1.886003e-02 -3.489581e-05 -9.695756e-06
1.638800e+01 7.478226e-03 -7.478277e-03 -5.136308e-05 -1.133160e-05
1.639200e+01 1.898266e-02 -1.898266e-02 -4.775047e-06 2.817755e-05
1.639600e+01 2.802929e-02 -2.802931e-02 -1.533604e-05 4.513126e-05
1.640000e+01 3.091230e-02 -3.091232e-02 -2.799075e-05 3.442723e-05
1.640400e+01 -2.665738e-02 2.665739e-02 5.998294e-06 -7.764210e-06
1.640800e+01 2.241390e-02 -2.241385e-02 4.745385e-05 -2.789339e-06
1.641200e+01 4.651622e-02 -4.651620e-02 1.925762e-05 -2.240223e-05
1.641600e+01 -4.306871e-02 4.306870e-02 -1.823102e-05 -2.493763e-05
1.642000e+01 -4.106333e-02 4.106330e-02 -2.478240e-05 1.061590e-05
1.642400e+01 -5.132758e-02 5.132754e-02 -3.617788e-05 1.061538e-05
1.642800e+01 -6.579026e-02 6.579016e-02 -9.968279e-05 -3.456157e-05
1.643200e+01 -8.201751e-02 8.201746e-02 -4.929411e-05 9.992209e-06
1.643600e+01 9.821279e-02 -9.821276e-02 2.925518e-05 5.764394e-05
1.644000e+01 7.923406e-02 -7.923405e-02 8.993495e-06 1.324480e-05
1.644400e+01 5.493004e-02 -5.493007e-02 -3.229562e-05 -2.365131e-05
1.644800e+01 -4.863314e-02 4.863304e-02 -9.365988e-05 -3.633122e-05
1.645200e+01 -5.529825e-02 5.529812e-02 -1.338327e-04 -3.815626e-05
1.645600e+01 -6.766109e-02 6.766096e-02 -1.381638e-04 -1.466021e-05
1.646000e+01 8.506970e-02 -8.506981e-02 -1.166422e-04 8.692557e-06
1.646400e+01 -6.442872e-02 6.442865e-02 -6.665904e-05 2.129701e-05
1.646800e+01 -8.171618e-02 8.171617e-02 -7.766542e-06 4.041787e-05
1.647200e+01 -9.649611e-02 9.649605e-02 -5.848208e-05 2.777602e-05
1.647600e+01 1.024236e-01 -1.024237e-01 -1.781996e-04 -2.094967e-05
1.648000e+01 3.495176e-02 -3.495199e-02 -2.252815e-04 -3.429612e-05
1.648400e+01 8.782541e-02 -8.782555e-02 -1.382797e-04 2.179294e-05
1.648800e+01 -6.541911e-02 6.541904e-02 -6.667305e-05 5.661406e-05
1.649200e+01 8.215066e-02 -8.215077e-02 -1.061750e-04 2.292726e-05
1.649600e+01 6.033930e-02 -6.033940e-02 -1.029467e-04 1.253018e-05
1.650000e+01 4.083671e-02 -4.083674e-02 -2.390132e-05 3.096512e-05
1.650400e+01 2.947708e-02 -2.947707e-02 2.594182e-06 2.549227e-05
1.650800e+01 -2.433160e-02 2.433160e-02 1.809115e-06 1.103139e-05
1.651200e+01 -2.642441e-02 2.642438e-02 -2.339114e-05 -2.660868e-06
1.651600e+01 -3.295458e-02 3.295454e-02 -4.648309e-05 -3.479024e-06
1.652000e+01 -3.933244e-02 3.933238e-02 -5.535136e-05 -1.851596e-06
1.652400e+01 5.511406e-02 -5.511412e-02 -6.229751e-05 -2.993473e-05
1.652800e+01 -3.262164e-02 3.262157e-02 -6.893697e-05 -1.132191e-05
1.653200e+01 -5.072435e-02 5.072433e-02 -1.496647e-05 3.639641e-05
1.653600e+01 2.839702e-02 -2.839699e-02 3.256802e-05 1.192143e-05
1.654000e+01 3.750501e-02 -3.750498e-02 3.160449e-05 -2.499510e-05
1.654400e+01 2.598038e-02 -2.598038e-02 7.261455e-06 -2.107176e-05
1.654800e+01 -3.428580e-02 3.428580e-02 -1.089205e-06 -6.294263e-06
1.655200e+01 -4.102254e-02 4.102252e-02 -2.295917e-05 -1.594966e-05
1.655600e+01 -6.221884e-02 6.221882e-02 -1.891901e-05 -7.779372e-06
1.656000e+01 -7.420505e-02 7.420507e-02 2.126084e-05 2.300715e-05
1.656400e+01 8.065888e-02 -8.065888e-02 -5.254841e-06 9.496384e-06
1.656800e+01 5.128089e-02 -5.128089e-02 -1.037187e-06 -1.922862e-05
1.657200e+01 9.184043e-03 -9.184045e-03 -2.293554e-06 -1.096158e-05
1.657600e+01 3.228140e-02 -3.228143e-02 -2.637859e-05 -1.198031e-05
1.658000e+01 -4.292765e-02 4.292760e-02 -5.039070e-05 -2.949856e-05
1.658400e+01 -2.296659e-02 2.296657e-02 -1.650623e-05 9.910423e-07
1.658800e+01 8.615542e-04 -8.615782e-04 -2.401909e-05 3.821370e-06
1.659200e+01 5.513613e-02 -5.513621e-02 -7.312111e-05 -1.652895e-05
1.659600e+01 4.384580e-02 -4.384590e-02 -1.035643e-04 -1.126910e-06
1.660000e+01 5.583761e-02 -5.583770e-02 -9.028030e-05 2.534018e-05
1.660400e+01 5.831674e-02 -5.831679e-02 -4.525739e-05 3.164743e-05
1.660800e+01 6.423870e-02 -6.423878e-02 -7.310745e-05 3.000412e-05
1.661200e+01 6.704027e-02 -6.704050e-02 -2.355897e-04 -1.098832e-05
1.661600e+01 -6.316091e-02 6.316046e-02 -4.528093e-04 -4.871828e-05
1.662000e+01 -6.656271e-02 6.656207e-02 -6.401360e-04 -6.518077e-05
1.662400e+01 -6.018559e-02 6.018506e-02 -5.321394e-04 -3.512010e-05
1.662800e+01 -3.872250e-02 3.872237e-02 -1.240814e-04 3.530245e-05
1.663200e+01 -7.804427e-02 7.804441e-02 1.438271e-04 2.065598e-05
1.663600e+01 -8.301040e-02 8.301062e-02 2.207258e-04 -6.491373e-06
1.664000e+01 -1.152417e-01 1.152420e-01 3.040389e-04 2.449280e-05
1.664400e+01 1.335091e-01 -1.335087e-01 3.953989e-04 3.712134e-05
1.664800e+01 1.056904e-01 -1.056901e-01 3.370784e-04 -6.725525e-06
1.665200e+01 7.943195e-02 -7.943167e-02 2.841399e-04 -2.338141e-06
1.665600e+01 3.154330e-02 -3.154305e-02 2.490078e-04 1.906982e-05
1.666000e+01 -4.325627e-02 4.325643e-02 1.581601e-04 1.062256e-06
1.666400e+01 -6.033006e-02 6.033011e-02 4.072893e-05 -2.527696e-05
1.666800e+01 -7.765751e-02 7.765747e-02 -4.022601e-05 -3.157018e-05
1.667200e+01 9.630174e-02 -9.630177e-02 -3.601356e-05 -1.200003e-05
1.667600e+01 6.893876e-02 -6.893876e-02 1.146996e-06 1.441963e-05
1.668000e+01 2.831723e-02 -2.831727e-02 -4.282788e-05 -4.490931e-06
1.668400e+01 9.074370e-03 -9.074472e-03 -1.022050e-04 -4.268691e-05
1.668800e+01 -1.143698e-02 1.143686e-02 -1.144258e-04 -2.137765e-05
1.669200e+01 3.735046e-02 -3.735055e-02 -9.307612e-05 9.207796e-06
1.669600e+01 2.595000e-03 -2.595073e-03 -7.308980e-05 -1.932891e-06
1.670000e+01 -1.673422e-04 1.672541e-04 -8.803989e-05 -2.517922e-05
1.670400e+01 -2.029444e-02 2.029434e-02 -9.564329e-05 -1.284892e-05
1.670800e+01 -3.766898e-02 3.766889e-02 -9.453083e-05 2.917836e-07
1.671200e+01 -5.398853e-02 5.398841e-02 -1.271819e-04 -3.177037e-05
1.671600e+01 7.058384e-02 -7.058399e-02 -1.492165e-04 -5.844183e-05
1.672000e+01 5.042608e-02 -5.042618e-02 -1.030644e-04 -7.221788e-06
1.672400e+01 3.267351e-02 -3.267355e-02 -4.807440e-05 2.055822e-05
1.672800e+01 1.745053e-02 -1.745060e-02 -6.361270e-05 2.129251e-05
1.673200e+01 -2.525077e-03 2.524960e-03 -1.177496e-04 1.446623e-05
1.673600e+01 -1.758042e-02 1.758029e-02 -1.343129e-04 -3.472652e-06
1.674000e+01 -2.948043e-02 2.948029e-02 -1.372555e-04 -3.610240e-05
1.674400e+01 -4.259721e-02 4.259706e-02 -1.445053e-04 -2.294237e-05
1.674800e+01 -5.660454e-02 5.660442e-02 -1.231943e-04 1.722467e-05
1.675200e+01 7.163191e-02 -7.163202e-02 -1.093648e-04 1.801683e-05
1.675600e+01 -5.251783e-02 5.251771e-02 -1.206230e-04 -1.386576e-05
1.676000e+01 -6.773508e-02 6.773498e-02 -1.024980e-04 -1.240783e-05
1.676400e+01 8.301819e-02 -8.301830e-02 -1.177335e-04 4.596672e-06
1.676800e+01 6.346715e-02 -6.346731e-02 -1.527650e-04 -1.633547e-06
1.677200e+01 3.273547e-02 -3.273561e-02 -1.372428e-04 8.507268e-06
1.677600e+01 1.160500e-02 -1.160509e-02 -8.127194e-05 5.761864e-05
1.678000e+01 -1.544075e-02 1.544065e-02 -1.007800e-04 3.862330e-05
1.678400e+01 2.368451e-02 -2.368461e-02 -1.051980e-04 1.051290e-05
1.678800e+01 4.339898e-03 -4.340017e-03 -1.184718e-04 3.253097e-05
1.679200e+01 -9.606162e-03 9.606042e-03 -1.201829e-04 3.219812e-05
1.679600e+01 1.714242e-02 -1.714254e-02 -1.122005e-04 1.568515e-05
1.680000e+01 -9.565398e-03 9.565250e-03 -1.474944e-04 -4.346271e-06
1.680400e+01 -1.589763e-02 1.589743e-02 -1.951755e-04 -2.319698e-05
1.680800e+01 -2.221548e-02 2.221524e-02 -2.351409e-04 -2.418124e-05
1.681200e+01 -3.020963e-02 3.020940e-02 -2.342404e-04 -2.255899e-05
1.681600e+01 -4.044161e-02 4.044145e-02 -1.629522e-04 1.594583e-05
1.682000e+01 -5.331422e-02 5.331407e-02 -1.464339e-04 3.756703e-05
1.682400e+01 6.931112e-02 -6.931133e-02 -2.054739e-04 1.688403e-05
1.682800e+01 4.853581e-02 -4.853600e-02 -1.878828e-04 4.239870e-06
1.683200e+01 3.353622e-02 -3.353635e-02 -1.249775e-04 1.485037e-05
1.683600e+01 1.968689e-02 -1.968704e-02 -1.494848e-04 2.184387e-05
1.684000e+01 1.348775e-02 -1.348797e-02 -2.162671e-04 7.936529e-06
1.684400e+01 3.040935e-03 -3.041181e-03 -2.461534e-04 -5.756889e-06
1.684800e+01 -1.845062e-03 1.844797e-03 -2.649132e-04 -3.126476e-05
1.685200e+01 7.119601e-03 -7.119872e-03 -2.702373e-04 -2.481102e-05
1.685600e+01 1.248763e-02 -1.248787e-02 -2.332067e-04 1.226683e-05
1.686000e+01 -1.758376e-02 1.758355e-02 -2.140701e-04 3.020465e-05
1.686400e+01 -1.220615e-02 1.220592e-02 -2.271802e-04 1.736568e-05
1.686800e+01 3.632705e-04 -3.635081e-04 -2.375870e-04 2.140284e-05
1.687200e+01 2.350112e-03 -2.350337e-03 -2.256677e-04 1.740549e-05
1.687600e+01 1.206260e-02 -1.206288e-02 -2.716570e-04 1.397295e-05
1.688000e+01 -8.156289e-03 8.155961e-03 -3.283859e-04 2.909592e-06
1.688400e+01 -8.114167e-03 8.113856e-03 -3.116578e-04 6.382500e-06
1.688800e+01 7.539602e-04 -7.542106e-04 -2.504322e-04 9.168917e-06
1.689200e+01 6.780203e-03 -6.780455e-03 -2.527088e-04 8.757445e-06
1.689600e+01 -5.621723e-03 5.621418e-03 -3.044760e-04 -2.011722e-05
1.690000e+01 5.127234e-03 -5.127541e-03 -3.063384e-04 -3.180503e-05
1.690400e+01 -1.472713e-02 1.472686e-02 -2.745383e-04 -4.210684e-06
1.690800e+01 -4.548790e-03 4.548539e-03 -2.510305e-04 2.885747e-05
1.691200e+01 7.031770e-03 -7.032003e-03 -2.331786e-04 3.225901e-05
1.691600e+01 1.831050e-02 -1.831073e-02 -2.286682e-04 7.671016e-06
1.692000e+01 6.526390e-03 -6.526610e-03 -2.192696e-04 -1.571501e-05
1.692400e+01 -1.049762e-03 1.049555e-03 -2.072690e-04 -1.309506e-05
1.692800e+01 -5.550184e-03 5.549939e-03 -2.446876e-04 -3.073294e-05
1.693200e+01 -1.727941e-02 1.727919e-02 -2.194620e-04 -2.520997e-05
1.693600e+01 -1.274163e-02 1.274150e-02 -1.336978e-04 1.981193e-05
1.694000e+01 -9.769832e-03 9.769770e-03 -6.224935e-05 3.898331e-05
1.694400e+01 -8.940864e-03 8.940780e-03 -8.377741e-05 -3.409526e-06
1.694800e+01 1.103236e-02 -1.103246e-02 -9.569214e-05 -2.434658e-05
1.695200e+01 7.689736e-03 -7.689819e-03 -8.299706e-05 -1.863166e-05
1.695600e+01 6.654154e-03 -6.654194e-03 -4.023364e-05 3.112139e-06
1.696000e+01 -3.103376e-03 3.103342e-03 -3.436075e-05 -2.498487e-05
1.696400e+01 -9.613847e-03 9.613784e-03 -6.327986e-05 -3.116281e-05
1.696800e+01 -8.063924e-03 8.063883e-03 -4.054882e-05 -9.263651e-06
1.697200e+01 -9.380439e-03 9.380393e-03 -4.534477e-05 -4.688636e-06
1.697600e+01 -1.258339e-02 1.258336e-02 -3.122127e-05 1.698306e-05
1.698000e+01 -1.667850e-02 1.667847e-02 -2.763548e-05 1.104326e-05
1.698400e+01 -2.124702e-02 2.124697e-02 -5.630958e-05 -1.981670e-05
1.698800e+01 -2.651881e-02 2.651880e-02 -1.529920e-05 -9.434636e-06
1.699200e+01 -3.322105e-02 3.322106e-02 4.786784e-06 -2.071687e-07
1.699600e+01 4.221948e-02 -4.221950e-02 -2.084278e-05 -2.056789e-05
1.700000e+01 3.062473e-02 -3.062476e-02 -2.927812e-05 -2.653345e-05
1.700400e+01 2.284142e-02 -2.284144e-02 -1.670004e-05 -1.772106e-06
1.700800e+01 -9.072062e-03 9.072027e-03 -3.532128e-05 2.385596e-06
1.701200e+01 -2.059820e-02 2.059816e-02 -4.361102e-05 4.304768e-06
1.701600e+01 -2.686190e-02 2.686185e-02 -4.663639e-05 5.370897e-06
1.702000e+01 -3.499694e-02 3.499692e-02 -2.781975e-05 -2.153643e-06
1.702400e+01 4.569890e-02 -4.569893e-02 -3.071094e-05 -1.997291e-05
1.702800e+01 2.472770e-02 -2.472773e-02 -3.775867e-05 -1.202323e-05
1.703200e+01 1.116283e-02 -1.116284e-02 -3.172828e-06 1.741793e-05
1.703600e+01 5.155879e-03 -5.155922e-03 -4.310015e-05 -1.635652e-05
1.704000e+01 -9.449350e-03 9.449289e-03 -6.089939e-05 -2.834045e-05
1.704400e+01 1.877885e-03 -1.877895e-03 -1.044610e-05 2.345948e-05
1.704800e+01 -9.927645e-04 9.927723e-04 7.824319e-06 3.321089e-05
1.705200e+01 -7.972098e-03 7.972076e-03 -2.224630e-05 -1.131749e-06
1.705600e+01 -7.305473e-03 7.305423e-03 -4.934773e-05 -9.500628e-06
1.706000e+01 6.902685e-03 -6.902760e-03 -7.472862e-05 -1.311556e-05
1.706400e+01 1.372313e-02 -1.372327e-02 -1.362629e-04 -1.964994e-05
1.706800e+01 4.854977e-02 -4.854991e-02 -1.404099e-04 4.036951e-06
1.707200e+01 7.202653e-02 -7.202664e-02 -1.051590e-04 2.470860e-06
1.707600e+01 -3.388919e-02 3.388916e-02 -2.647434e-05 1.534807e-05
1.708000e+01 -7.723319e-02 7.723323e-02 3.150919e-05 2.970370e-05
1.708400e+01 -6.341792e-02 6.341791e-02 -1.275806e-05 1.863297e-05
1.708800e+01 4.096045e-02 -4.096053e-02 -8.378949e-05 -1.525253e-05
1.709200e+01 5.402687e-02 -5.402697e-02 -9.985398e-05 -1.723849e-05
1.709600e+01 7.250181e-02 -7.250186e-02 -4.551398e-05 8.157669e-06
1.710000e+01 8.036483e-02 -8.036484e-02 -8.524156e-06 1.100917e-05
1.710400e+01 7.945342e-02 -7.945347e-02 -4.321640e-05 1.300716e-05
1.710800e+01 6.970377e-02 -6.970385e-02 -7.693904e-05 9.480862e-06
1.711200e+01 -5.079868e-02 5.079857e-02 -1.140182e-04 1.697344e-08
1.711600e+01 -6.812499e-02 6.812488e-02 -1.169396e-04 2.177624e-05
1.712000e+01 -7.603712e-02 7.603702e-02 -1.016002e-04 1.562702e-05
1.712400e+01 7.578923e-02 -7.578932e-02 -9.038849e-05 -1.245384e-05
1.712800e+01 7.230628e-02 -7.230634e-02 -6.397761e-05 -6.100250e-06
1.713200e+01 6.481122e-02 -6.481129e-02 -6.687766e-05 -1.192683e-05
1.713600e+01 -4.799279e-02 4.799270e-02 -8.491638e-05 -1.471069e-05
1.714000e+01 6.395604e-02 -6.395610e-02 -5.546871e-05 1.288791e-05
1.714400e+01 4.684913e-02 -4.684916e-02 -3.509453e-05 2.268429e-05
1.714800e+01 -2.137803e-02 2.137798e-02 -5.206700e-05 -2.364809e-06
1.715200e+01 -4.707226e-02 4.707222e-02 -4.136076e-05 1.102124e-05
1.715600e+01 6.334338e-02 -6.334344e-02 -5.397585e-05 1.199282e-05
1.716000e+01 4.580979e-02 -4.580986e-02 -6.831776e-05 3.632977e-06
1.716400e+01 2.052483e-02 -2.052492e-02 -9.073172e-05 -3.694664e-06
1.716800e+01 -1.202233e-02 1.202221e-02 -1.265034e-04 -1.761457e-05
