1.000400e+01 1.151091e-04 0.000000e+00 1.151091e-04 -1.471398e-07
1.000800e+01 1.333869e-04 2.242913e-15 1.333869e-04 1.841726e-05
1.001200e+01 1.695271e-04 4.044166e-11 1.695312e-04 2.872043e-05
1.001600e+01 1.578643e-04 2.403454e-10 1.578883e-04 3.566898e-05
1.002000e+01 1.473768e-04 6.605564e-10 1.474428e-04 -9.379379e-07
1.002400e+01 1.818816e-04 6.316210e-10 1.819448e-04 -5.303512e-05
1.002800e+01 2.057858e-04 5.350910e-10 2.058393e-04 -1.322688e-07
1.003200e+01 1.898417e-04 6.928621e-10 1.899110e-04 6.056825e-05
1.003600e+01 1.764371e-04 1.434478e-09 1.765806e-04 3.941160e-05
1.004000e+01 1.782981e-04 1.930294e-09 1.784911e-04 -2.207742e-05
1.004400e+01 1.603406e-04 1.539749e-09 1.604946e-04 -2.475091e-05
1.004800e+01 1.678504e-04 1.306662e-09 1.679811e-04 3.899298e-06
1.005200e+01 1.726009e-04 1.541735e-09 1.727551e-04 3.371797e-06
1.005600e+01 1.931859e-04 1.685859e-09 1.933545e-04 -4.582505e-06
1.006000e+01 1.953411e-04 1.773731e-09 1.955185e-04 -1.487436e-05
1.006400e+01 1.762561e-04 1.588874e-09 1.764150e-04 -1.810920e-06
1.006800e+01 1.566118e-04 1.215391e-09 1.567333e-04 2.450119e-05
1.007200e+01 1.216921e-04 1.188776e-09 1.218109e-04 3.943752e-05
1.007600e+01 1.429788e-04 1.578231e-09 1.431367e-04 7.755235e-07
1.008000e+01 1.914981e-04 1.985716e-09 1.916967e-04 -8.285648e-06
1.008400e+01 1.740802e-04 2.883401e-09 1.743686e-04 -1.412490e-06
1.008800e+01 1.195759e-04 2.774297e-09 1.198533e-04 1.487049e-05
1.009200e+01 9.758556e-05 1.685854e-09 9.775414e-05 -6.433217e-06
1.009600e+01 1.515551e-04 9.309792e-10 1.516482e-04 -3.284415e-05
1.010000e+01 1.686051e-04 1.957554e-09 1.688009e-04 -2.184421e-05
1.010400e+01 1.851810e-04 2.871928e-09 1.854682e-04 -1.990530e-05
1.010800e+01 1.588328e-04 2.212869e-09 1.590540e-04 -6.399246e-06
1.011200e+01 1.826757e-04 7.516566e-10 1.827509e-04 3.230773e-05
1.011600e+01 1.601661e-04 1.298414e-09 1.602960e-04 2.858563e-05
1.012000e+01 1.334365e-04 2.403796e-09 1.336769e-04 -1.604130e-05
1.012400e+01 1.540322e-04 1.933612e-09 1.542255e-04 -3.999808e-05
1.012800e+01 1.490471e-04 1.327779e-09 1.491799e-04 -1.382121e-05
1.013200e+01 1.486497e-04 1.093518e-09 1.487590e-04 2.183127e-05
1.013600e+01 1.581805e-04 1.493491e-09 1.583298e-04 8.068057e-06
1.014000e+01 1.486580e-04 2.099179e-09 1.488679e-04 -7.191908e-06
1.014400e+01 1.455113e-04 2.014341e-09 1.457128e-04 -4.960626e-06
1.014800e+01 1.166065e-04 1.347574e-09 1.167413e-04 1.221387e-05
1.015200e+01 1.145238e-04 4.428799e-10 1.145681e-04 5.389634e-05
1.015600e+01 9.152927e-05 1.176472e-09 9.164692e-05 6.459215e-05
1.016000e+01 1.182812e-04 2.778773e-09 1.185591e-04 -2.292517e-05
1.016400e+01 1.685868e-04 3.584878e-09 1.689453e-04 -4.405965e-05
1.016800e+01 1.576931e-04 4.975081e-09 1.581907e-04 3.352673e-05
1.017200e+01 1.171398e-04 4.595711e-09 1.175994e-04 1.421924e-05
1.017600e+01 1.167476e-04 1.657890e-09 1.169134e-04 -5.186849e-05
1.018000e+01 1.233766e-04 1.494517e-09 1.235260e-04 -5.331458e-05
1.018400e+01 1.377961e-04 4.495909e-09 1.382457e-04 -7.114989e-06
1.018800e+01 1.401267e-04 5.307296e-09 1.406574e-04 8.792767e-06
1.019200e+01 1.309365e-04 2.552605e-09 1.311917e-04 -4.517657e-06
1.019600e+01 1.188781e-04 1.695326e-10 1.188951e-04 -3.113374e-06
1.020000e+01 1.208697e-04 9.294399e-10 1.209626e-04 9.173310e-06
1.020400e+01 1.126507e-04 3.278477e-09 1.129786e-04 9.810304e-06
1.020800e+01 1.378708e-04 3.316469e-09 1.382025e-04 -6.005310e-06
1.021200e+01 1.449093e-04 2.038786e-09 1.451132e-04 1.491168e-05
1.021600e+01 1.126350e-04 1.847958e-09 1.128198e-04 2.558727e-05
1.022000e+01 8.750979e-05 2.168727e-09 8.772666e-05 3.470049e-05
1.022400e+01 8.719661e-05 2.333449e-09 8.742996e-05 2.997753e-05
1.022800e+01 1.175669e-04 2.307004e-09 1.177976e-04 -1.282089e-05
1.023200e+01 1.423115e-04 3.081223e-09 1.426196e-04 -2.488531e-05
1.023600e+01 1.146230e-04 4.775700e-09 1.151006e-04 8.438999e-06
1.024000e+01 1.049068e-04 3.910063e-09 1.052979e-04 7.348541e-06
1.024400e+01 1.155365e-04 2.095260e-09 1.157460e-04 -9.668878e-06
1.024800e+01 1.229473e-04 3.512370e-09 1.232986e-04 -2.346046e-05
1.025200e+01 1.249323e-04 5.943266e-09 1.255266e-04 -1.853695e-05
1.025600e+01 1.344466e-04 5.048459e-09 1.349514e-04 -1.067992e-05
1.026000e+01 1.265274e-04 2.428427e-09 1.267703e-04 -1.054731e-05
1.026400e+01 9.473365e-05 1.826344e-09 9.491629e-05 -1.620199e-05
1.026800e+01 9.193208e-05 2.680946e-09 9.220017e-05 1.377147e-06
1.027200e+01 8.216540e-05 3.220767e-09 8.248747e-05 1.692344e-05
1.027600e+01 8.430987e-05 1.441890e-09 8.445406e-05 1.229069e-05
1.028000e+01 8.323657e-05 -4.684759e-10 8.318973e-05 -1.768979e-06
1.028400e+01 8.629104e-05 -1.802782e-10 8.627301e-05 -2.434965e-05
1.028800e+01 9.194318e-05 1.754313e-09 9.211861e-05 -1.978471e-05
1.029200e+01 8.064911e-05 2.811079e-09 8.093021e-05 -1.150285e-05
1.029600e+01 6.966124e-05 1.251941e-09 6.978644e-05 9.095825e-06
1.030000e+01 7.181611e-05 -4.462913e-10 7.177148e-05 2.561598e-05
1.030400e+01 8.286643e-05 -1.207001e-10 8.285436e-05 1.413050e-05
1.030800e+01 1.040047e-04 1.205669e-09 1.041253e-04 1.577551e-05
1.031200e+01 8.051834e-05 3.011379e-09 8.081948e-05 -1.164379e-05
1.031600e+01 6.796393e-05 2.758600e-09 6.823979e-05 -5.985506e-06
1.032000e+01 8.873136e-05 1.795091e-09 8.891087e-05 3.249331e-05
1.032400e+01 7.440367e-05 2.546608e-09 7.465833e-05 3.470775e-05
1.032800e+01 4.849725e-05 2.800620e-09 4.877731e-05 1.371775e-05
1.033200e+01 4.495193e-05 1.991370e-09 4.515107e-05 -1.995354e-05
1.033600e+01 5.204563e-05 1.694714e-09 5.221511e-05 -3.873518e-05
1.034000e+01 5.710766e-05 1.928391e-09 5.730049e-05 -1.041520e-05
1.034400e+01 5.794716e-05 1.869180e-09 5.813408e-05 -9.197402e-06
1.034800e+01 5.065605e-05 1.230332e-09 5.077908e-05 -9.020423e-06
1.035200e+01 5.386997e-05 1.030548e-09 5.397302e-05 -2.705296e-07
1.035600e+01 2.180893e-05 1.417967e-09 2.195073e-05 4.178136e-06
1.036000e+01 -1.084762e-05 -5.510957e-10 -1.090273e-05 1.383037e-05
1.036400e+01 -2.851744e-05 -3.337758e-09 -2.885121e-05 2.752183e-05
1.036800e+01 -3.858797e-05 -3.658778e-09 -3.895384e-05 1.660503e-05
1.037200e+01 -1.997513e-07 -2.020375e-09 -4.017888e-07 -2.812706e-05
1.037600e+01 2.444078e-05 9.437273e-10 2.453515e-05 -2.944846e-05
1.038000e+01 1.081309e-05 2.167524e-09 1.102984e-05 -8.226937e-06
1.038400e+01 1.564233e-05 -3.366322e-10 1.560866e-05 5.692596e-06
1.038800e+01 -2.499568e-07 -1.569497e-09 -4.069065e-07 3.160508e-06
1.039200e+01 1.761099e-05 -4.142753e-10 1.756957e-05 -7.080953e-06
1.039600e+01 1.846754e-05 2.325843e-09 1.870012e-05 -1.205904e-05
1.040000e+01 2.243217e-05 2.842523e-09 2.271643e-05 -3.193701e-06
1.040400e+01 3.677343e-05 1.538843e-09 3.692732e-05 -4.887076e-06
1.040800e+01 4.803986e-05 1.134349e-09 4.815330e-05 -8.062837e-06
1.041200e+01 6.503420e-05 1.853183e-09 6.521952e-05 -1.732255e-06
1.041600e+01 6.400513e-05 2.967876e-09 6.430192e-05 5.298789e-06
1.042000e+01 6.398789e-05 2.907659e-09 6.427865e-05 8.165723e-06
1.042400e+01 5.511162e-05 2.107288e-09 5.532235e-05 7.379138e-07
1.042800e+01 6.121489e-05 1.141817e-09 6.132907e-05 -8.330731e-06
1.043200e+01 5.822855e-05 1.203390e-09 5.834889e-05 -6.125826e-06
1.043600e+01 5.874983e-05 1.173206e-09 5.886715e-05 9.040113e-06
1.044000e+01 5.686018e-05 7.507180e-10 5.693525e-05 4.330838e-06
1.044400e+01 5.952471e-05 1.369507e-10 5.953841e-05 -3.109792e-06
1.044800e+01 4.418344e-05 -1.754443e-10 4.416590e-05 -3.787708e-06
1.045200e+01 3.597252e-05 -1.101426e-09 3.586237e-05 8.968308e-06
1.045600e+01 2.224799e-05 -1.066682e-09 2.214132e-05 2.679461e-06
1.046000e+01 3.407657e-05 -5.189907e-11 3.407139e-05 -6.890320e-06
1.046400e+01 3.831001e-05 1.341541e-09 3.844416e-05 -8.382325e-06
1.046800e+01 2.211301e-05 8.730988e-10 2.220032e-05 -2.348925e-06
1.047200e+01 1.657952e-05 -1.313872e-09 1.644814e-05 4.684725e-06
1.047600e+01 1.206778e-05 -1.783247e-09 1.188945e-05 -1.527144e-06
1.048000e+01 4.732822e-06 -6.385453e-10 4.668968e-06 8.980127e-07
1.048400e+01 -3.657933e-05 -3.161940e-10 -3.661095e-05 -5.920428e-06
1.048800e+01 -8.850659e-05 -3.077361e-09 -8.881433e-05 -5.348077e-06
1.049200e+01 -1.043772e-04 -6.704549e-09 -1.050476e-04 8.462354e-06
1.049600e+01 -1.094705e-04 -6.817561e-09 -1.101523e-04 1.309580e-05
1.050000e+01 -1.821324e-04 -4.794883e-09 -1.826119e-04 2.519309e-06
1.050400e+01 -3.273256e-04 -7.883200e-09 -3.281139e-04 -2.066804e-05
1.050800e+01 -4.408937e-04 -1.805179e-08 -4.426988e-04 -4.389529e-06
1.051200e+01 -4.633458e-04 -2.590930e-08 -4.659367e-04 2.544258e-05
1.051600e+01 -2.530630e-04 -2.435938e-08 -2.554989e-04 4.205240e-05
1.052000e+01 3.910632e-05 -9.219612e-09 3.818436e-05 4.246537e-05
1.052400e+01 2.253610e-04 1.094746e-08 2.264557e-04 2.154608e-05
1.052800e+01 2.740655e-04 2.182921e-08 2.762484e-04 1.478744e-05
1.053200e+01 3.124168e-04 2.095597e-08 3.145124e-04 2.406313e-05
1.053600e+01 3.301771e-04 2.132608e-08 3.323097e-04 2.166521e-06
1.054000e+01 2.832080e-04 2.692604e-08 2.859006e-04 -6.364301e-06
1.054400e+01 2.474878e-04 2.837741e-08 2.503256e-04 -6.997073e-08
1.054800e+01 1.891821e-04 2.300292e-08 1.914824e-04 6.311003e-06
1.055200e+01 1.235815e-04 1.365495e-08 1.249470e-04 6.076943e-06
1.055600e+01 5.220017e-05 5.698814e-09 5.277005e-05 8.578368e-06
1.056000e+01 -1.030207e-05 1.291478e-09 -1.017293e-05 3.314467e-06
1.056400e+01 -3.198809e-05 -1.619718e-09 -3.215006e-05 -1.205527e-05
1.056800e+01 -2.906651e-05 -4.759461e-09 -2.954246e-05 -7.816492e-06
1.057200e+01 -2.856303e-05 -7.810205e-09 -2.934405e-05 -4.038393e-06
1.057600e+01 -5.270065e-05 -9.040448e-09 -5.360469e-05 -4.290962e-07
1.058000e+01 -9.442752e-05 -8.831568e-09 -9.531067e-05 2.438134e-06
1.058400e+01 -9.417948e-05 -9.391037e-09 -9.511859e-05 1.088842e-05
1.058800e+01 -7.166475e-05 -9.403086e-09 -7.260506e-05 1.132057e-06
1.059200e+01 -6.374622e-05 -8.768807e-09 -6.462310e-05 -5.127114e-06
1.059600e+01 -7.787175e-05 -8.598492e-09 -7.873160e-05 -3.097540e-06
1.060000e+01 -9.282430e-05 -7.020338e-09 -9.352633e-05 -1.334291e-06
1.060400e+01 -9.647928e-05 -1.702166e-09 -9.664949e-05 7.204858e-07
1.060800e+01 -8.573657e-05 3.950561e-09 -8.534152e-05 3.648643e-06
1.061200e+01 -9.356271e-05 5.551938e-09 -9.300751e-05 3.605540e-06
1.061600e+01 -1.138799e-04 3.409655e-09 -1.135389e-04 -1.605638e-06
1.062000e+01 -1.145743e-04 1.583702e-09 -1.144159e-04 2.468622e-07
1.062400e+01 -1.197886e-04 2.604961e-09 -1.195281e-04 5.007611e-07
1.062800e+01 -1.179966e-04 3.518811e-09 -1.176447e-04 1.191005e-06
1.063200e+01 -1.103401e-04 2.807148e-09 -1.100594e-04 -2.337338e-07
1.063600e+01 -1.085287e-04 1.143708e-09 -1.084143e-04 -3.239998e-06
1.064000e+01 -1.154507e-04 -1.117387e-09 -1.155624e-04 -3.371551e-06
1.064400e+01 -1.174326e-04 -3.877876e-09 -1.178204e-04 -3.352277e-06
1.064800e+01 -1.029113e-04 -6.084398e-09 -1.035198e-04 -4.746014e-06
1.065200e+01 -8.522776e-05 -6.308867e-09 -8.585865e-05 -6.663324e-06
1.065600e+01 -1.021757e-04 -5.469477e-09 -1.027227e-04 -9.952969e-06
1.066000e+01 -1.078111e-04 -7.886403e-09 -1.085998e-04 -4.270080e-06
1.066400e+01 -9.227105e-05 -1.238978e-08 -9.351003e-05 4.216978e-06
1.066800e+01 -1.053215e-04 -1.334758e-08 -1.066563e-04 -1.980754e-06
1.067200e+01 -1.200875e-04 -1.035684e-08 -1.211232e-04 -1.562595e-05
1.067600e+01 -1.303739e-04 -7.010523e-09 -1.310750e-04 -1.156047e-05
1.068000e+01 -1.525062e-04 -6.803781e-09 -1.531866e-04 -8.459450e-06
1.068400e+01 -1.439218e-04 -8.184133e-09 -1.447402e-04 -5.481116e-06
1.068800e+01 -1.280173e-04 -4.242626e-09 -1.284415e-04 1.807870e-06
1.069200e+01 -1.223547e-04 3.178611e-09 -1.220369e-04 2.003088e-06
1.069600e+01 -1.377524e-04 4.832667e-09 -1.372691e-04 -7.810592e-06
1.070000e+01 -1.385186e-04 -2.576514e-09 -1.387763e-04 -5.276024e-06
1.070400e+01 -1.386059e-04 -1.048088e-08 -1.396540e-04 -4.370738e-06
1.070800e+01 -1.359537e-04 -1.258812e-08 -1.372125e-04 -1.050679e-05
1.071200e+01 -1.445965e-04 -1.128723e-08 -1.457252e-04 -1.720411e-06
1.071600e+01 -1.624355e-04 -1.236533e-08 -1.636720e-04 2.228939e-06
1.072000e+01 -1.616106e-04 -1.649896e-08 -1.632605e-04 -9.805918e-06
1.072400e+01 -1.500196e-04 -1.804291e-08 -1.518239e-04 -1.726291e-05
1.072800e+01 -1.554127e-04 -1.374740e-08 -1.567874e-04 -6.140069e-06
1.073200e+01 -1.682117e-04 -7.611703e-09 -1.689728e-04 -6.598372e-06
1.073600e+01 -1.775211e-04 -4.518850e-09 -1.779730e-04 -8.158288e-06
1.074000e+01 -1.916807e-04 -4.498687e-09 -1.921306e-04 -8.459173e-06
1.074400e+01 -2.093034e-04 -5.687044e-09 -2.098721e-04 -1.477185e-05
1.074800e+01 -2.125267e-04 -7.542744e-09 -2.132810e-04 -1.122028e-05
1.075200e+01 -2.186504e-04 -9.211645e-09 -2.195716e-04 -1.314122e-05
1.075600e+01 -2.337627e-04 -1.103827e-08 -2.348665e-04 -9.650686e-06
1.076000e+01 -2.418270e-04 -1.329188e-08 -2.431562e-04 -3.083170e-06
1.076400e+01 -2.496700e-04 -1.517442e-08 -2.511874e-04 -2.072180e-06
1.076800e+01 -2.537868e-04 -1.632298e-08 -2.554191e-04 -4.361558e-06
1.077200e+01 -2.584350e-04 -1.603441e-08 -2.600385e-04 -3.296806e-06
1.077600e+01 -2.799877e-04 -1.499699e-08 -2.814874e-04 -7.243058e-06
1.078000e+01 -2.674854e-04 -1.623611e-08 -2.691090e-04 -3.167215e-06
1.078400e+01 -2.687894e-04 -1.726945e-08 -2.705163e-04 -9.037133e-06
1.078800e+01 -2.654776e-04 -1.846076e-08 -2.673237e-04 -8.912770e-06
1.079200e+01 -2.474447e-04 -2.017439e-08 -2.494622e-04 -8.165181e-06
1.079600e+01 -2.372968e-04 -2.233154e-08 -2.395299e-04 -8.214885e-06
1.080000e+01 -2.344611e-04 -2.508222e-08 -2.369693e-04 -4.726715e-06
1.080400e+01 -2.235754e-04 -2.663672e-08 -2.262390e-04 6.761244e-07
1.080800e+01 -1.906193e-04 -2.497650e-08 -1.931169e-04 8.342991e-06
1.081200e+01 -1.805881e-04 -2.010908e-08 -1.825990e-04 2.164758e-06
1.081600e+01 -1.831783e-04 -1.646707e-08 -1.848250e-04 -1.595930e-06
1.082000e+01 -1.443769e-04 -1.513994e-08 -1.458909e-04 8.664474e-06
1.082400e+01 -1.141704e-04 -1.105866e-08 -1.152763e-04 9.345788e-06
1.082800e+01 -1.014562e-04 -5.072334e-09 -1.019634e-04 7.796274e-06
1.083200e+01 -7.415178e-05 -6.823969e-10 -7.422002e-05 1.519692e-05
1.083600e+01 -5.863681e-05 2.646329e-09 -5.837218e-05 1.838248e-05
1.084000e+01 -4.916475e-05 5.248784e-09 -4.863987e-05 1.329784e-05
1.084400e+01 -2.821106e-05 7.919834e-09 -2.741908e-05 1.505067e-05
1.084800e+01 -1.853135e-05 1.170172e-08 -1.736118e-05 8.774944e-06
1.085200e+01 -1.936475e-05 1.368624e-08 -1.799613e-05 9.892254e-06
1.085600e+01 2.211173e-07 1.288444e-08 1.509561e-06 1.046739e-05
1.086000e+01 5.461614e-06 1.259104e-08 6.720718e-06 1.055048e-05
1.086400e+01 1.019416e-05 1.256715e-08 1.145088e-05 1.105957e-05
1.086800e+01 1.607595e-05 1.107875e-08 1.718382e-05 8.813890e-06
1.087200e+01 1.386220e-05 7.773259e-09 1.463952e-05 -1.739421e-06
1.087600e+01 1.421912e-05 4.251549e-09 1.464427e-05 -4.471253e-06
1.088000e+01 2.387078e-05 3.247504e-09 2.419553e-05 2.525798e-07
1.088400e+01 2.900807e-05 5.144579e-09 2.952253e-05 -2.539863e-06
1.088800e+01 3.462216e-05 7.032191e-09 3.532538e-05 -3.782293e-06
1.089200e+01 3.285269e-05 7.521172e-09 3.360481e-05 -5.466032e-06
1.089600e+01 3.934231e-05 7.139794e-09 4.005629e-05 -2.920167e-06
1.090000e+01 3.479359e-05 8.629082e-09 3.565650e-05 -4.246557e-06
1.090400e+01 1.646389e-05 1.119361e-08 1.758325e-05 -7.221962e-06
1.090800e+01 1.561921e-05 1.160940e-08 1.678015e-05 -7.331724e-06
1.091200e+01 2.200745e-05 1.004835e-08 2.301229e-05 -4.062744e-06
1.091600e+01 3.277438e-06 8.533181e-09 4.130756e-06 -6.871337e-06
1.092000e+01 5.524313e-06 6.817915e-09 6.206105e-06 -5.654617e-06
1.092400e+01 1.296436e-05 6.942659e-09 1.365863e-05 -3.168045e-06
1.092800e+01 1.076476e-05 8.398604e-09 1.160462e-05 7.529981e-07
1.093200e+01 3.543862e-06 9.047146e-09 4.448577e-06 8.425221e-07
1.093600e+01 -8.356210e-06 8.835601e-09 -7.472650e-06 -3.018696e-07
1.094000e+01 -6.070762e-06 8.601986e-09 -5.210563e-06 2.085000e-08
1.094400e+01 -1.019361e-05 8.921324e-09 -9.301476e-06 3.088896e-06
1.094800e+01 -1.670558e-05 7.620045e-09 -1.594357e-05 2.419222e-06
1.095200e+01 -1.081754e-05 3.953845e-09 -1.042216e-05 2.256505e-06
1.095600e+01 -6.584476e-06 1.199201e-09 -6.464556e-06 6.488729e-06
1.096000e+01 -1.458210e-05 1.470273e-09 -1.443507e-05 1.161475e-05
1.096400e+01 -9.605553e-06 3.047046e-09 -9.300848e-06 1.784726e-05
1.096800e+01 -1.567522e-05 4.476949e-09 -1.522753e-05 1.241401e-05
1.097200e+01 -2.818589e-05 4.342392e-09 -2.775165e-05 2.427794e-06
1.097600e+01 -3.285917e-05 4.113687e-09 -3.244781e-05 -2.566184e-07
1.098000e+01 -3.165859e-05 5.403081e-09 -3.111828e-05 3.226361e-06
1.098400e+01 -3.095860e-05 6.551740e-09 -3.030343e-05 9.532301e-06
1.098800e+01 -2.440692e-05 5.711394e-09 -2.383578e-05 1.002973e-05
1.099200e+01 -2.677387e-05 4.184917e-09 -2.635538e-05 2.600660e-06
1.099600e+01 -3.458432e-05 3.321542e-09 -3.425216e-05 1.070366e-06
1.100000e+01 -2.854509e-05 3.246766e-09 -2.822042e-05 4.529897e-06
1.100400e+01 -3.160159e-05 3.686156e-09 -3.123297e-05 1.998291e-06
1.100800e+01 -2.475192e-05 3.210341e-09 -2.443088e-05 -6.020672e-07
1.101200e+01 -1.539267e-05 3.135921e-09 -1.507908e-05 1.543615e-06
1.101600e+01 -9.658214e-06 4.067716e-09 -9.251443e-06 6.552856e-06
1.102000e+01 -1.706647e-05 4.893995e-09 -1.657707e-05 2.734889e-06
1.102400e+01 -1.896086e-05 3.944803e-09 -1.856638e-05 7.373287e-06
1.102800e+01 -2.255181e-05 3.312614e-09 -2.222055e-05 1.000332e-05
1.103200e+01 -4.512015e-05 4.983262e-09 -4.462182e-05 -4.720238e-06
1.103600e+01 -4.246496e-05 6.586907e-09 -4.180627e-05 -6.750560e-06
1.104000e+01 -4.012840e-05 7.295582e-09 -3.939884e-05 -4.268654e-06
1.104400e+01 -3.582567e-05 6.178665e-09 -3.520780e-05 -1.633789e-06
1.104800e+01 -2.738694e-05 4.212623e-09 -2.696568e-05 7.099467e-07
1.105200e+01 -2.420178e-05 3.058153e-09 -2.389596e-05 7.131947e-07
1.105600e+01 -2.750221e-05 2.179010e-09 -2.728431e-05 1.441078e-06
1.106000e+01 -3.401730e-05 8.992279e-10 -3.392738e-05 5.343642e-07
1.106400e+01 -3.264673e-05 -1.459919e-10 -3.266133e-05 1.228949e-06
1.106800e+01 -1.488761e-05 5.096880e-11 -1.488251e-05 3.640429e-06
1.107200e+01 -1.445858e-06 1.728674e-09 -1.272991e-06 1.666278e-06
1.107600e+01 -3.150098e-06 3.000422e-09 -2.850056e-06 1.972609e-06
1.108000e+01 -1.561403e-05 2.798427e-09 -1.533419e-05 -6.736147e-06
1.108400e+01 -1.947442e-05 8.972028e-10 -1.938470e-05 -8.363300e-06
1.108800e+01 -1.841582e-05 -1.056984e-09 -1.852152e-05 -5.659372e-06
1.109200e+01 -1.177031e-05 -1.952951e-09 -1.196560e-05 -1.951478e-06
1.109600e+01 -4.009917e-06 -1.744726e-09 -4.184390e-06 -3.769222e-06
1.110000e+01 -4.286955e-06 -2.091184e-09 -4.496074e-06 -9.584754e-06
1.110400e+01 -1.096447e-05 -4.344930e-09 -1.139897e-05 -1.179212e-05
1.110800e+01 -1.129151e-05 -7.775199e-09 -1.206903e-05 -8.872949e-06
1.111200e+01 -1.816272e-05 -1.067963e-08 -1.923069e-05 -9.718521e-06
1.111600e+01 -2.268084e-05 -1.308547e-08 -2.398939e-05 -1.013842e-05
1.112000e+01 -1.883359e-05 -1.504453e-08 -2.033804e-05 -1.114092e-05
1.112400e+01 -1.706779e-05 -1.653363e-08 -1.872116e-05 -5.878014e-06
1.112800e+01 -6.511140e-06 -1.767350e-08 -8.278489e-06 -3.675332e-06
1.113200e+01 -7.888612e-06 -1.748276e-08 -9.636889e-06 -6.475022e-06
1.113600e+01 -5.931204e-06 -1.646100e-08 -7.577304e-06 -2.096612e-06
1.114000e+01 -2.355508e-05 -1.491227e-08 -2.504631e-05 -5.585515e-06
1.114400e+01 -4.067769e-05 -1.435978e-08 -4.211366e-05 -8.442595e-06
1.114800e+01 -2.330744e-05 -1.427385e-08 -2.473483e-05 -3.140238e-06
1.115200e+01 -2.132632e-05 -1.201028e-08 -2.252735e-05 -1.919640e-06
1.115600e+01 -2.111775e-05 -9.438733e-09 -2.206163e-05 -1.212982e-06
1.116000e+01 -2.364682e-05 -8.561714e-09 -2.450299e-05 1.800290e-07
1.116400e+01 -2.051777e-05 -8.694056e-09 -2.138718e-05 3.172055e-06
1.116800e+01 -2.183360e-05 -7.994423e-09 -2.263304e-05 1.483726e-06
1.117200e+01 -2.631818e-05 -6.772825e-09 -2.699546e-05 -3.086749e-06
1.117600e+01 -8.110192e-06 -5.949279e-09 -8.705120e-06 2.795426e-06
1.118000e+01 -1.985863e-05 -4.434639e-09 -2.030209e-05 5.596697e-06
1.118400e+01 -2.504561e-05 -3.444820e-09 -2.539009e-05 2.784658e-06
1.118800e+01 -8.316225e-06 -3.295094e-09 -8.645735e-06 3.901793e-06
1.119200e+01 -2.396092e-05 -3.030121e-09 -2.426393e-05 -4.763169e-06
1.119600e+01 -3.267275e-05 -4.026468e-09 -3.307540e-05 -1.076651e-06
1.120000e+01 -1.899521e-05 -5.242440e-09 -1.951946e-05 4.146262e-06
1.120400e+01 -2.286951e-05 -5.214766e-09 -2.339099e-05 7.105707e-06
1.120800e+01 -2.583305e-05 -4.611332e-09 -2.629418e-05 6.510662e-06
1.121200e+01 -2.485751e-05 -3.797232e-09 -2.523724e-05 4.132308e-06
1.121600e+01 -2.156755e-05 -3.013475e-09 -2.186890e-05 5.362412e-06
1.122000e+01 -1.895870e-05 -1.727156e-09 -1.913142e-05 7.923105e-06
1.122400e+01 -1.594918e-05 2.818157e-10 -1.592099e-05 9.340721e-06
1.122800e+01 7.876505e-07 2.120452e-09 9.996958e-07 1.486641e-05
1.123200e+01 8.324903e-06 3.898359e-09 8.714739e-06 1.665219e-05
1.123600e+01 -1.916930e-05 5.557195e-09 -1.861358e-05 7.187128e-07
1.124000e+01 -2.778759e-05 5.516602e-09 -2.723593e-05 -7.741573e-06
1.124400e+01 -3.064438e-05 4.753354e-09 -3.016904e-05 -3.117909e-06
1.124800e+01 -3.075346e-05 3.922561e-09 -3.036120e-05 -7.591027e-08
1.125200e+01 -2.421727e-05 2.723414e-09 -2.394493e-05 1.589998e-06
1.125600e+01 -2.082203e-05 1.221471e-09 -2.069988e-05 3.020341e-06
1.126000e+01 -2.114835e-05 -9.777343e-11 -2.115812e-05 3.820404e-06
1.126400e+01 -1.757555e-05 -3.287479e-10 -1.760842e-05 9.155900e-06
1.126800e+01 -1.309831e-05 8.522710e-10 -1.301308e-05 8.411447e-06
1.127200e+01 -1.963933e-05 2.327074e-09 -1.940662e-05 3.606119e-06
1.127600e+01 -1.568144e-05 2.885085e-09 -1.539293e-05 5.400503e-06
1.128000e+01 -2.167232e-05 2.884586e-09 -2.138386e-05 -2.644088e-06
1.128400e+01 -1.735300e-05 2.174357e-09 -1.713557e-05 -1.139220e-06
1.128800e+01 -1.065026e-05 2.193170e-09 -1.043095e-05 2.047682e-06
1.129200e+01 -1.355129e-05 3.085428e-09 -1.324275e-05 -1.146375e-06
1.129600e+01 -1.737382e-05 3.740899e-09 -1.699973e-05 -4.184922e-07
1.130000e+01 -2.688131e-05 3.727897e-09 -2.650852e-05 -5.067331e-06
1.130400e+01 -2.640778e-05 2.478203e-09 -2.615996e-05 -1.507881e-06
1.130800e+01 -1.228880e-05 1.101298e-09 -1.217867e-05 3.398191e-06
1.131200e+01 -1.930524e-05 5.746474e-10 -1.924778e-05 -5.050005e-06
1.131600e+01 -2.768825e-05 1.447291e-10 -2.767378e-05 -5.298659e-06
1.132000e+01 -1.775125e-05 1.974416e-10 -1.773150e-05 -2.442700e-06
1.132400e+01 -1.903004e-05 8.822474e-10 -1.894181e-05 2.257013e-06
1.132800e+01 -2.080192e-05 1.805677e-09 -2.062135e-05 2.177453e-06
1.133200e+01 -2.111704e-05 3.002307e-09 -2.081681e-05 -2.235716e-06
1.133600e+01 -1.755599e-05 3.909275e-09 -1.716506e-05 9.697478e-07
1.134000e+01 -9.227690e-06 4.600624e-09 -8.767628e-06 2.170137e-06
1.134400e+01 -1.202645e-05 5.412215e-09 -1.148523e-05 4.557739e-06
1.134800e+01 -1.400787e-05 6.732273e-09 -1.333464e-05 6.378212e-06
1.135200e+01 -6.137928e-06 8.503933e-09 -5.287534e-06 3.949842e-06
1.135600e+01 -8.448726e-06 9.728783e-09 -7.475848e-06 6.395136e-07
1.136000e+01 -1.125299e-05 9.691106e-09 -1.028388e-05 -2.906275e-06
1.136400e+01 -1.159530e-05 9.019253e-09 -1.069338e-05 -1.977293e-06
1.136800e+01 -2.271976e-05 8.771433e-09 -2.184262e-05 -3.722339e-06
1.137200e+01 -2.400303e-05 8.847994e-09 -2.311823e-05 -3.884029e-06
1.137600e+01 -2.682471e-05 9.170571e-09 -2.590765e-05 -1.823602e-07
1.138000e+01 -3.237633e-05 9.528931e-09 -3.142343e-05 -2.429806e-06
1.138400e+01 -4.309811e-05 9.615030e-09 -4.213661e-05 -6.799300e-06
1.138800e+01 -4.534563e-05 9.021601e-09 -4.444347e-05 -1.030452e-05
1.139200e+01 -6.112157e-05 7.912216e-09 -6.033035e-05 -1.336005e-05
1.139600e+01 -4.799278e-05 6.284615e-09 -4.736432e-05 -6.245089e-06
1.140000e+01 -2.618751e-05 4.987048e-09 -2.568880e-05 -2.596232e-06
1.140400e+01 -6.730351e-05 3.663944e-09 -6.693711e-05 -1.125757e-05
1.140800e+01 -9.841798e-05 3.189414e-10 -9.838608e-05 -1.230450e-05
1.141200e+01 -9.766141e-05 -4.483176e-09 -9.810973e-05 -8.420148e-06
1.141600e+01 -1.070111e-04 -9.035643e-09 -1.079146e-04 -4.084028e-06
1.142000e+01 -9.669292e-05 -1.216159e-08 -9.790908e-05 -2.979307e-06
1.142400e+01 -9.035283e-05 -1.318603e-08 -9.167143e-05 -4.990660e-06
1.142800e+01 -8.275719e-05 -1.294422e-08 -8.405161e-05 -8.112154e-06
1.143200e+01 -6.784627e-05 -1.259397e-08 -6.910567e-05 -6.821931e-06
1.143600e+01 -5.711777e-05 -1.246032e-08 -5.836380e-05 -3.891602e-06
1.144000e+01 -6.058090e-05 -1.243794e-08 -6.182469e-05 -3.761170e-06
1.144400e+01 -5.670541e-05 -1.246731e-08 -5.795214e-05 6.497664e-06
1.144800e+01 -4.345662e-05 -1.175879e-08 -4.463250e-05 7.884984e-06
1.145200e+01 -1.705011e-05 -1.049005e-08 -1.809912e-05 1.063640e-05
1.145600e+01 -8.390512e-07 -8.454707e-09 -1.684522e-06 9.197469e-06
1.146000e+01 -1.248686e-05 -6.165014e-09 -1.310336e-05 -7.908186e-06
1.146400e+01 -5.178634e-06 -5.310552e-09 -5.709689e-06 -8.086598e-06
1.146800e+01 2.085283e-05 -5.141400e-09 2.033869e-05 9.448317e-07
1.147200e+01 2.325421e-05 -4.252308e-09 2.282898e-05 1.402192e-06
1.147600e+01 1.266372e-06 -2.597663e-09 1.006606e-06 -3.904163e-06
1.148000e+01 -7.345089e-06 -1.080713e-09 -7.453160e-06 -7.509917e-06
1.148400e+01 -6.994007e-06 -8.712988e-10 -7.081137e-06 2.083020e-07
1.148800e+01 -3.756371e-06 -1.870890e-09 -3.943460e-06 2.821054e-06
1.149200e+01 -4.401429e-06 -3.158035e-09 -4.717232e-06 -6.241842e-06
1.149600e+01 -1.581051e-05 -4.372935e-09 -1.624780e-05 -6.047376e-06
1.150000e+01 5.951361e-06 -5.225758e-09 5.428785e-06 1.482310e-06
1.150400e+01 6.285872e-07 -5.342678e-09 9.431933e-08 -2.045443e-06
1.150800e+01 -1.395162e-06 -5.808089e-09 -1.975970e-06 -2.974272e-06
1.151200e+01 -1.176557e-05 -5.924471e-09 -1.235802e-05 -3.169242e-06
1.151600e+01 -1.895559e-05 -5.543833e-09 -1.950997e-05 -6.133922e-06
1.152000e+01 -3.294398e-05 -5.328675e-09 -3.347685e-05 -1.012896e-05
1.152400e+01 -4.760263e-05 -5.900981e-09 -4.819272e-05 -1.010923e-05
1.152800e+01 -2.981905e-05 -6.597416e-09 -3.047879e-05 2.401057e-06
1.153200e+01 -3.689966e-05 -5.576532e-09 -3.745731e-05 1.413089e-05
1.153600e+01 -8.229910e-05 -3.433643e-09 -8.264247e-05 9.625144e-06
1.154000e+01 -9.143062e-05 -2.047766e-09 -9.163540e-05 1.233379e-05
1.154400e+01 -6.671718e-05 -7.888724e-10 -6.679607e-05 1.573097e-05
1.154800e+01 -1.260494e-04 9.589159e-10 -1.259535e-04 1.084538e-05
1.155200e+01 -2.709291e-04 2.048544e-09 -2.707242e-04 4.397192e-06
1.155600e+01 -4.178474e-04 1.472004e-09 -4.177002e-04 -2.280695e-06
1.156000e+01 -4.620097e-04 -1.233121e-09 -4.621330e-04 7.568193e-06
1.156400e+01 -2.897234e-04 -3.963908e-09 -2.901198e-04 2.053322e-05
1.156800e+01 -1.049855e-05 -3.947189e-09 -1.089327e-05 1.598154e-05
1.157200e+01 1.801691e-04 -8.378632e-10 1.800853e-04 1.529635e-05
1.157600e+01 2.393426e-04 3.979741e-09 2.397405e-04 1.778776e-05
1.158000e+01 2.814889e-04 8.764427e-09 2.823653e-04 1.620998e-05
1.158400e+01 3.175773e-04 1.332541e-08 3.189098e-04 9.437033e-06
1.158800e+01 2.965047e-04 1.770166e-08 2.982749e-04 4.575024e-06
1.159200e+01 2.380904e-04 2.128776e-08 2.402191e-04 -6.474747e-06
1.159600e+01 1.860986e-04 2.340656e-08 1.884393e-04 -1.144893e-06
1.160000e+01 1.385214e-04 2.455505e-08 1.409769e-04 7.374086e-08
1.160400e+01 6.959516e-05 2.421203e-08 7.201637e-05 -2.515415e-07
1.160800e+01 7.973128e-06 2.255396e-08 1.022852e-05 -3.776302e-06
1.161200e+01 -2.290720e-05 2.023660e-08 -2.088354e-05 -5.145072e-06
1.161600e+01 -1.819274e-05 1.765911e-08 -1.642683e-05 2.708524e-06
1.162000e+01 -3.592484e-05 1.545317e-08 -3.437952e-05 5.311714e-06
1.162400e+01 -6.843562e-05 1.293490e-08 -6.714213e-05 6.025774e-06
1.162800e+01 -9.462148e-05 9.811262e-09 -9.364035e-05 1.210413e-06
1.163200e+01 -8.911722e-05 6.459010e-09 -8.847132e-05 -9.845064e-08
1.163600e+01 -6.644427e-05 3.845370e-09 -6.605973e-05 5.418754e-06
1.164000e+01 -4.149193e-05 2.927295e-09 -4.119920e-05 1.108123e-05
1.164400e+01 -6.105853e-05 3.692482e-09 -6.068929e-05 1.008781e-05
1.164800e+01 -9.147475e-05 4.654709e-09 -9.100928e-05 -3.329610e-06
1.165200e+01 -9.783307e-05 4.658532e-09 -9.736722e-05 -7.323938e-06
1.165600e+01 -7.936608e-05 3.816433e-09 -7.898443e-05 -3.474069e-06
1.166000e+01 -7.537393e-05 3.103831e-09 -7.506354e-05 -4.825511e-06
1.166400e+01 -8.611396e-05 3.302740e-09 -8.578369e-05 -7.828216e-06
1.166800e+01 -1.190346e-04 4.387361e-09 -1.185958e-04 -1.222181e-05
1.167200e+01 -1.162721e-04 5.126329e-09 -1.157595e-04 -7.025988e-06
1.167600e+01 -1.007297e-04 5.142508e-09 -1.002154e-04 -2.216663e-06
1.168000e+01 -8.818976e-05 4.116952e-09 -8.777807e-05 -6.479685e-06
1.168400e+01 -9.690860e-05 1.870767e-09 -9.672152e-05 -1.392193e-05
1.168800e+01 -1.093240e-04 -1.587196e-09 -1.094828e-04 -1.599129e-05
1.169200e+01 -1.125117e-04 -5.352103e-09 -1.130469e-04 -1.183178e-05
1.169600e+01 -9.535765e-05 -8.172294e-09 -9.617488e-05 -5.360976e-06
1.170000e+01 -7.812005e-05 -9.795279e-09 -7.909958e-05 3.877755e-07
1.170400e+01 -9.603191e-05 -1.069284e-08 -9.710119e-05 4.462986e-06
1.170800e+01 -1.051986e-04 -1.136458e-08 -1.063351e-04 3.499140e-06
1.171200e+01 -1.022155e-04 -1.181934e-08 -1.033974e-04 -8.503309e-07
1.171600e+01 -8.799821e-05 -1.194510e-08 -8.919272e-05 2.793129e-06
1.172000e+01 -8.288239e-05 -1.178321e-08 -8.406071e-05 5.244082e-07
1.172400e+01 -1.025152e-04 -1.240316e-08 -1.037555e-04 -4.836574e-06
1.172800e+01 -1.206784e-04 -1.411526e-08 -1.220899e-04 -5.075018e-06
1.173200e+01 -1.276163e-04 -1.552082e-08 -1.291684e-04 -9.385672e-06
1.173600e+01 -1.253129e-04 -1.618391e-08 -1.269313e-04 -1.225633e-05
1.174000e+01 -1.178785e-04 -1.649311e-08 -1.195278e-04 -1.078923e-05
1.174400e+01 -1.296202e-04 -1.695996e-08 -1.313162e-04 -1.098512e-05
1.174800e+01 -1.476615e-04 -1.796451e-08 -1.494580e-04 -1.185404e-05
1.175200e+01 -1.481285e-04 -1.871178e-08 -1.499997e-04 -8.572786e-06
1.175600e+01 -1.411958e-04 -1.879802e-08 -1.430756e-04 -1.536805e-06
1.176000e+01 -1.520534e-04 -1.884169e-08 -1.539375e-04 -5.949442e-06
1.176400e+01 -1.640281e-04 -1.960020e-08 -1.659881e-04 -2.320557e-06
1.176800e+01 -1.627446e-04 -2.059797e-08 -1.648044e-04 -1.079305e-06
1.177200e+01 -1.692516e-04 -2.130752e-08 -1.713824e-04 -3.051783e-06
1.177600e+01 -1.522961e-04 -2.139687e-08 -1.544358e-04 1.519782e-06
1.178000e+01 -1.557977e-04 -2.052488e-08 -1.578502e-04 2.673965e-06
1.178400e+01 -1.821963e-04 -1.899028e-08 -1.840953e-04 2.943392e-07
1.178800e+01 -2.090308e-04 -1.750984e-08 -2.107817e-04 -5.138585e-06
1.179200e+01 -2.248895e-04 -1.609838e-08 -2.264994e-04 -5.973139e-06
1.179600e+01 -2.278621e-04 -1.502787e-08 -2.293649e-04 -5.698359e-06
1.180000e+01 -2.122327e-04 -1.476693e-08 -2.137094e-04 -5.073123e-06
1.180400e+01 -2.220840e-04 -1.495956e-08 -2.235799e-04 -2.080556e-06
1.180800e+01 -2.218563e-04 -1.514231e-08 -2.233705e-04 6.567496e-06
1.181200e+01 -2.265173e-04 -1.439671e-08 -2.279570e-04 6.426969e-06
1.181600e+01 -2.346722e-04 -1.346727e-08 -2.360189e-04 -5.461842e-07
1.182000e+01 -2.608239e-04 -1.353820e-08 -2.621777e-04 -7.649492e-06
1.182400e+01 -2.668420e-04 -1.466092e-08 -2.683081e-04 -4.261294e-06
1.182800e+01 -2.542397e-04 -1.587688e-08 -2.558274e-04 6.906655e-06
1.183200e+01 -2.442838e-04 -1.572390e-08 -2.458562e-04 1.735708e-05
1.183600e+01 -2.630017e-04 -1.360124e-08 -2.643618e-04 -1.373779e-06
1.184000e+01 -2.595903e-04 -1.125983e-08 -2.607162e-04 -6.535401e-06
1.184400e+01 -2.617684e-04 -9.800211e-09 -2.627485e-04 2.851356e-07
1.184800e+01 -2.562127e-04 -9.393386e-09 -2.571520e-04 5.800312e-06
1.185200e+01 -2.430495e-04 -8.988192e-09 -2.439483e-04 1.019752e-05
1.185600e+01 -2.245298e-04 -7.258571e-09 -2.252557e-04 1.058758e-05
1.186000e+01 -2.120293e-04 -4.285119e-09 -2.124578e-04 1.723930e-06
1.186400e+01 -2.007958e-04 -1.217173e-09 -2.009176e-04 1.069597e-05
1.186800e+01 -1.787573e-04 2.175347e-09 -1.785398e-04 1.581565e-05
1.187200e+01 -1.531331e-04 5.568454e-09 -1.525762e-04 1.116241e-05
1.187600e+01 -1.348256e-04 8.955725e-09 -1.339300e-04 3.275618e-06
1.188000e+01 -1.103632e-04 1.212067e-08 -1.091511e-04 1.698988e-06
1.188400e+01 -9.096343e-05 1.438486e-08 -8.952495e-05 6.416357e-06
1.188800e+01 -7.749596e-05 1.531990e-08 -7.596397e-05 7.091459e-06
1.189200e+01 -6.350467e-05 1.508007e-08 -6.199666e-05 5.958976e-06
1.189600e+01 -5.237179e-05 1.490686e-08 -5.088110e-05 3.742098e-06
1.190000e+01 -3.746268e-05 1.547673e-08 -3.591501e-05 -5.929004e-07
1.190400e+01 -2.860530e-05 1.589067e-08 -2.701623e-05 4.522524e-06
1.190800e+01 -3.409123e-05 1.593961e-08 -3.249727e-05 7.246739e-06
1.191200e+01 -3.569994e-05 1.553281e-08 -3.414666e-05 5.591507e-06
1.191600e+01 -1.764862e-05 1.481926e-08 -1.616670e-05 7.152237e-06
1.192000e+01 -8.755570e-06 1.469331e-08 -7.286239e-06 6.948804e-06
1.192400e+01 -1.573463e-05 1.499808e-08 -1.423483e-05 2.710508e-07
1.192800e+01 -8.754581e-06 1.539978e-08 -7.214603e-06 6.002686e-07
1.193200e+01 -6.402361e-06 1.668891e-08 -4.733470e-06 7.111211e-07
1.193600e+01 -1.632009e-05 1.866849e-08 -1.445324e-05 -3.240406e-06
1.194000e+01 -1.600898e-05 2.104624e-08 -1.390435e-05 -7.573153e-06
1.194400e+01 -5.915312e-06 2.394806e-08 -3.520506e-06 -1.593643e-06
1.194800e+01 -8.405244e-06 2.744312e-08 -5.660932e-06 -1.528732e-06
1.195200e+01 -7.328813e-06 3.017689e-08 -4.311124e-06 2.682795e-07
1.195600e+01 2.260523e-05 3.132309e-08 2.573754e-05 1.311815e-05
1.196000e+01 6.866774e-06 3.199443e-08 1.006622e-05 3.030427e-06
1.196400e+01 -2.200530e-05 3.180100e-08 -1.882520e-05 -2.976636e-06
1.196800e+01 -2.681089e-05 3.078077e-08 -2.373281e-05 -9.446993e-08
1.197200e+01 -1.246209e-05 2.870315e-08 -9.591772e-06 3.708744e-06
1.197600e+01 -1.816917e-05 2.587056e-08 -1.558211e-05 5.540671e-06
1.198000e+01 -1.284895e-05 2.339573e-08 -1.050938e-05 9.129857e-07
1.198400e+01 -2.003410e-05 2.201447e-08 -1.783265e-05 2.551596e-06
1.198800e+01 -1.958848e-05 2.097559e-08 -1.749092e-05 6.105864e-06
1.199200e+01 -2.789436e-05 1.903999e-08 -2.599037e-05 6.321408e-07
1.199600e+01 -2.940830e-05 1.573297e-08 -2.783501e-05 -4.626173e-06
1.200000e+01 -4.059036e-05 1.262594e-08 -3.932776e-05 -1.031406e-05
1.200400e+01 -3.616677e-05 1.051480e-08 -3.511529e-05 -1.692748e-06
1.200800e+01 -4.972664e-05 9.556084e-09 -4.877103e-05 -8.078676e-06
1.201200e+01 -4.931151e-05 7.401306e-09 -4.857138e-05 -5.088366e-06
1.201600e+01 -6.220404e-05 4.315466e-09 -6.177249e-05 -5.934115e-06
1.202000e+01 -4.317237e-05 1.694361e-09 -4.300293e-05 2.442238e-06
1.202400e+01 -2.960553e-05 1.612917e-09 -2.944424e-05 1.306880e-05
1.202800e+01 -3.327725e-05 3.665763e-09 -3.291068e-05 1.110054e-05
1.203200e+01 -4.540112e-05 5.393824e-09 -4.486174e-05 2.366259e-06
1.203600e+01 -4.675170e-05 4.640343e-09 -4.628766e-05 5.783274e-06
1.204000e+01 -4.948683e-05 1.839314e-09 -4.930290e-05 6.664199e-06
1.204400e+01 -5.608335e-05 -1.769808e-09 -5.626033e-05 9.784355e-07
1.204800e+01 -6.160637e-05 -4.845534e-09 -6.209093e-05 4.352290e-07
1.205200e+01 -5.244134e-05 -6.873686e-09 -5.312870e-05 3.469467e-06
1.205600e+01 -5.924601e-05 -8.798586e-09 -6.012587e-05 -4.340402e-07
1.206000e+01 -7.179594e-05 -1.170596e-08 -7.296654e-05 -5.459845e-06
1.206400e+01 -5.335609e-05 -1.473530e-08 -5.482962e-05 7.742053e-07
1.206800e+01 -5.812986e-05 -1.561464e-08 -5.969132e-05 -1.298978e-06
1.207200e+01 -6.699525e-05 -1.501445e-08 -6.849669e-05 -5.732732e-06
1.207600e+01 -7.171519e-05 -1.434878e-08 -7.315007e-05 -6.585904e-06
1.208000e+01 -5.052533e-05 -1.358091e-08 -5.188342e-05 -3.943582e-07
1.208400e+01 -6.947317e-05 -1.111327e-08 -7.058450e-05 -9.280100e-06
1.208800e+01 -7.597282e-05 -8.141456e-09 -7.678696e-05 -6.556885e-06
1.209200e+01 -7.445809e-05 -6.203853e-09 -7.507847e-05 -9.395739e-06
1.209600e+01 -6.834531e-05 -7.676337e-09 -6.911294e-05 -1.144921e-05
1.210000e+01 -4.392721e-05 -1.175109e-08 -4.510232e-05 -2.189998e-06
1.210400e+01 -4.642644e-05 -1.498588e-08 -4.792503e-05 -3.251231e-06
1.210800e+01 -4.140223e-05 -1.674696e-08 -4.307693e-05 -2.489001e-06
1.211200e+01 -3.992423e-05 -1.784697e-08 -4.170893e-05 -3.040675e-06
1.211600e+01 -4.873250e-05 -1.978808e-08 -5.071131e-05 -6.628942e-06
1.212000e+01 -5.150650e-05 -2.249284e-08 -5.375579e-05 -8.633810e-06
1.212400e+01 -5.319139e-05 -2.449537e-08 -5.564093e-05 -3.829919e-06
1.212800e+01 -4.735993e-05 -2.523172e-08 -4.988310e-05 -1.919808e-06
1.213200e+01 -5.388572e-05 -2.533171e-08 -5.641889e-05 -5.074833e-06
1.213600e+01 -5.970411e-05 -2.556674e-08 -6.226078e-05 -7.132986e-06
1.214000e+01 -4.904850e-05 -2.582567e-08 -5.163106e-05 -1.008296e-05
1.214400e+01 -5.010353e-05 -2.561073e-08 -5.266461e-05 -5.626060e-06
1.214800e+01 -5.563252e-05 -2.497270e-08 -5.812979e-05 -3.884576e-06
1.215200e+01 -5.509485e-05 -2.426929e-08 -5.752177e-05 -4.915827e-06
1.215600e+01 -5.115608e-05 -2.281177e-08 -5.343726e-05 -1.541433e-06
1.216000e+01 -4.908022e-05 -2.045345e-08 -5.112556e-05 2.341464e-06
1.216400e+01 -4.583088e-05 -1.829756e-08 -4.766064e-05 1.442480e-06
1.216800e+01 -6.009862e-05 -1.716346e-08 -6.181496e-05 -8.123206e-06
1.217200e+01 -4.929770e-05 -1.717058e-08 -5.101476e-05 -2.404326e-06
1.217600e+01 -4.491379e-05 -1.610542e-08 -4.652434e-05 1.244371e-06
1.218000e+01 -4.249941e-05 -1.364903e-08 -4.386431e-05 -4.538812e-06
1.218400e+01 -3.875663e-05 -1.140511e-08 -3.989715e-05 2.275401e-06
1.218800e+01 -5.867613e-05 -9.685608e-09 -5.964470e-05 -1.910313e-06
1.219200e+01 -5.119227e-05 -8.602061e-09 -5.205248e-05 -2.001505e-06
1.219600e+01 -6.015793e-05 -6.644125e-09 -6.082235e-05 -2.408335e-06
1.220000e+01 -6.528596e-05 -4.544378e-09 -6.574040e-05 -4.721948e-06
1.220400e+01 -5.737220e-05 -4.139225e-09 -5.778612e-05 -2.116933e-06
1.220800e+01 -5.484934e-05 -4.918402e-09 -5.534118e-05 -2.725132e-06
1.221200e+01 -4.421827e-05 -5.322138e-09 -4.475048e-05 2.221015e-06
1.221600e+01 -5.255982e-05 -3.792459e-09 -5.293906e-05 -5.645663e-07
1.222000e+01 -6.471909e-05 -1.191712e-09 -6.483826e-05 -5.056231e-06
1.222400e+01 -6.117729e-05 3.535483e-10 -6.114193e-05 4.130761e-06
1.222800e+01 -6.737891e-05 7.303695e-10 -6.730587e-05 5.324556e-06
1.223200e+01 -6.497017e-05 1.028213e-09 -6.486734e-05 6.066772e-06
1.223600e+01 -6.035659e-05 2.597028e-09 -6.009689e-05 5.095585e-06
1.224000e+01 -6.138050e-05 4.830339e-09 -6.089746e-05 -5.280894e-06
1.224400e+01 -5.238806e-05 5.599370e-09 -5.182812e-05 -2.733279e-06
1.224800e+01 -6.982093e-05 5.056489e-09 -6.931528e-05 -3.856433e-06
1.225200e+01 -6.970349e-05 3.828811e-09 -6.932061e-05 -1.623731e-06
1.225600e+01 -6.278281e-05 3.589571e-09 -6.242385e-05 6.903986e-06
1.226000e+01 -5.034278e-05 5.015280e-09 -4.984125e-05 8.546524e-06
1.226400e+01 -5.313088e-05 6.776075e-09 -5.245327e-05 1.276993e-05
1.226800e+01 -6.022388e-05 8.203939e-09 -5.940349e-05 7.153222e-06
1.227200e+01 -5.990532e-05 9.446252e-09 -5.896070e-05 3.764992e-06
1.227600e+01 -5.500049e-05 1.163136e-08 -5.383735e-05 7.319772e-06
1.228000e+01 -5.387067e-05 1.515797e-08 -5.235487e-05 1.290272e-05
1.228400e+01 -7.178245e-05 1.872565e-08 -6.990989e-05 9.251464e-06
1.228800e+01 -6.014238e-05 2.068801e-08 -5.807358e-05 6.758308e-06
1.229200e+01 -6.102575e-05 2.182043e-08 -5.884370e-05 -7.968287e-07
1.229600e+01 -6.396153e-05 2.247212e-08 -6.171432e-05 9.451865e-07
1.230000e+01 -5.041413e-05 2.298503e-08 -4.811563e-05 4.832555e-06
1.230400e+01 -6.469323e-05 2.254621e-08 -6.243861e-05 3.126044e-06
1.230800e+01 -5.914353e-05 2.026706e-08 -5.711683e-05 3.537591e-06
1.231200e+01 -7.049421e-05 1.770160e-08 -6.872405e-05 -6.674166e-06
1.231600e+01 -7.988654e-05 1.513391e-08 -7.837315e-05 -5.370074e-06
1.232000e+01 -7.760018e-05 1.322700e-08 -7.627748e-05 -4.004203e-06
1.232400e+01 -8.461828e-05 1.165400e-08 -8.345288e-05 -2.505564e-07
1.232800e+01 -7.722586e-05 1.016945e-08 -7.620891e-05 4.072318e-06
1.233200e+01 -7.126164e-05 9.438726e-09 -7.031777e-05 3.505760e-06
1.233600e+01 -7.368224e-05 9.446251e-09 -7.273762e-05 1.880011e-06
1.234000e+01 -7.901434e-05 9.500594e-09 -7.806428e-05 -1.107486e-06
1.234400e+01 -7.065478e-05 8.758533e-09 -6.977892e-05 2.455293e-06
1.234800e+01 -7.545289e-05 8.076252e-09 -7.464526e-05 -3.509092e-07
1.235200e+01 -8.895109e-05 8.276597e-09 -8.812343e-05 -3.385955e-06
1.235600e+01 -8.795787e-05 9.125161e-09 -8.704535e-05 -1.385384e-06
1.236000e+01 -7.850777e-05 9.568473e-09 -7.755093e-05 -3.274263e-06
1.236400e+01 -7.096787e-05 8.857627e-09 -7.008210e-05 8.753522e-06
1.236800e+01 -8.123575e-05 8.355693e-09 -8.040018e-05 1.237680e-05
1.237200e+01 -9.828289e-05 8.280124e-09 -9.745487e-05 2.004425e-06
1.237600e+01 -9.435853e-05 7.747077e-09 -9.358383e-05 1.045562e-06
1.238000e+01 -7.982789e-05 6.857793e-09 -7.914211e-05 1.091909e-05
1.238400e+01 -9.035107e-05 6.234374e-09 -8.972763e-05 1.485103e-05
1.238800e+01 -1.051806e-04 6.145244e-09 -1.045661e-04 7.317350e-06
1.239200e+01 -1.184481e-04 6.310183e-09 -1.178171e-04 8.025292e-07
1.239600e+01 -1.150364e-04 5.793506e-09 -1.144571e-04 4.320504e-06
1.240000e+01 -1.246388e-04 4.755140e-09 -1.241633e-04 -7.128219e-07
1.240400e+01 -1.296882e-04 3.447895e-09 -1.293434e-04 -3.085716e-06
1.240800e+01 -1.343163e-04 2.555834e-09 -1.340607e-04 5.244697e-07
1.241200e+01 -1.443272e-04 2.095586e-09 -1.441176e-04 3.505353e-06
1.241600e+01 -1.629008e-04 1.107439e-09 -1.627900e-04 1.700477e-06
1.242000e+01 -1.798750e-04 -8.612350e-10 -1.799611e-04 -5.851225e-06
1.242400e+01 -1.830623e-04 -3.223132e-09 -1.833846e-04 -1.928891e-06
1.242800e+01 -1.751854e-04 -4.803519e-09 -1.756657e-04 1.447502e-06
1.243200e+01 -1.673161e-04 -4.878434e-09 -1.678039e-04 -1.052911e-06
1.243600e+01 -1.451769e-04 -4.199595e-09 -1.455968e-04 3.967199e-06
1.244000e+01 -1.235051e-04 -3.849207e-09 -1.238900e-04 2.805617e-06
1.244400e+01 -1.394976e-04 -4.598766e-09 -1.399575e-04 -7.995020e-06
1.244800e+01 -1.189622e-04 -6.580933e-09 -1.196203e-04 -2.475612e-06
1.245200e+01 -9.811312e-05 -8.521100e-09 -9.896523e-05 9.269594e-07
1.245600e+01 -7.017298e-05 -1.002052e-08 -7.117503e-05 9.928699e-06
1.246000e+01 -5.398950e-05 -1.047408e-08 -5.503690e-05 9.693552e-06
1.246400e+01 -4.537271e-05 -1.048851e-08 -4.642156e-05 6.263544e-06
1.246800e+01 -5.904099e-05 -1.051862e-08 -6.009285e-05 -6.481602e-06
1.247200e+01 -4.215905e-05 -1.064741e-08 -4.322379e-05 -6.713993e-07
1.247600e+01 -3.233451e-05 -9.682327e-09 -3.330274e-05 7.112224e-06
1.248000e+01 -3.978652e-05 -7.789871e-09 -4.056551e-05 4.113909e-06
1.248400e+01 -5.128157e-05 -5.698749e-09 -5.185145e-05 4.505527e-07
1.248800e+01 -5.228668e-05 -3.717179e-09 -5.265840e-05 -4.421128e-06
1.249200e+01 -3.581798e-05 -2.388049e-09 -3.605679e-05 -3.378124e-06
1.249600e+01 -2.971652e-05 -1.810684e-09 -2.989759e-05 -5.233588e-06
1.250000e+01 -2.926182e-05 -1.778146e-09 -2.943963e-05 -3.782902e-06
1.250400e+01 -3.377758e-05 -1.727774e-09 -3.395036e-05 7.009534e-07
1.250800e+01 -3.506104e-05 -1.613296e-09 -3.522237e-05 5.708911e-06
1.251200e+01 -4.456368e-05 -1.559621e-09 -4.471964e-05 5.959902e-06
1.251600e+01 -5.957469e-05 -2.001433e-09 -5.977483e-05 -9.432256e-06
1.252000e+01 -5.062497e-05 -3.081730e-09 -5.093315e-05 -8.457049e-06
1.252400e+01 -4.506997e-05 -3.404832e-09 -4.541045e-05 1.188823e-05
1.252800e+01 -6.396098e-05 -2.644683e-09 -6.422545e-05 -3.535138e-06
1.253200e+01 -7.466549e-05 -2.461461e-09 -7.491164e-05 -2.232335e-05
1.253600e+01 -6.973639e-05 -2.841996e-09 -7.002059e-05 -6.389393e-06
1.254000e+01 -1.176261e-04 -2.885610e-09 -1.179146e-04 6.897904e-06
1.254400e+01 -1.497181e-04 -3.447149e-09 -1.500628e-04 -7.262221e-06
1.254800e+01 -1.356705e-04 -4.848708e-09 -1.361554e-04 -2.339752e-05
1.255200e+01 -1.325346e-04 -6.620756e-09 -1.331967e-04 -1.489506e-05
1.255600e+01 -2.463972e-04 -8.214275e-09 -2.472186e-04 -1.733637e-05
1.256000e+01 -3.955277e-04 -1.136133e-08 -3.966639e-04 -1.704329e-05
1.256400e+01 -5.029164e-04 -1.565503e-08 -5.044819e-04 5.282899e-07
1.256800e+01 -4.257391e-04 -1.913147e-08 -4.276523e-04 2.227066e-05
1.257200e+01 -1.254218e-04 -1.926319e-08 -1.273481e-04 3.933426e-05
1.257600e+01 8.150825e-05 -1.336600e-08 8.017165e-05 2.619020e-05
1.258000e+01 1.721089e-04 -4.803293e-09 1.716285e-04 2.005350e-06
1.258400e+01 2.257477e-04 2.219063e-09 2.259696e-04 -4.607202e-06
1.258800e+01 2.373556e-04 8.204855e-09 2.381761e-04 -3.012842e-05
1.259200e+01 2.566920e-04 1.084297e-08 2.577763e-04 -2.887821e-05
1.259600e+01 2.046922e-04 1.054889e-08 2.057471e-04 -4.264296e-06
1.260000e+01 1.525911e-04 8.678689e-09 1.534589e-04 -3.198138e-06
1.260400e+01 1.326039e-04 6.591710e-09 1.332631e-04 5.883000e-06
1.260800e+01 6.044268e-05 6.564200e-09 6.109910e-05 -2.186310e-06
1.261200e+01 -1.287931e-05 5.767957e-09 -1.230252e-05 -5.515469e-06
1.261600e+01 -3.740982e-05 2.969433e-09 -3.711288e-05 2.053904e-06
1.262000e+01 -5.406954e-05 1.195162e-10 -5.405759e-05 4.203663e-06
1.262400e+01 -6.526963e-05 -2.664680e-09 -6.553610e-05 3.379356e-05
1.262800e+01 -1.302812e-04 -2.124485e-09 -1.304936e-04 1.615905e-06
1.263200e+01 -1.481957e-04 -6.097160e-10 -1.482567e-04 -4.890269e-05
1.263600e+01 -6.555935e-05 -1.924301e-09 -6.575178e-05 -2.609651e-05
1.264000e+01 -5.393781e-05 -2.777306e-09 -5.421554e-05 -1.123669e-05
1.264400e+01 -8.823501e-05 -4.619670e-09 -8.869698e-05 8.902360e-07
1.264800e+01 -9.524207e-05 -6.198242e-09 -9.586189e-05 -5.578354e-06
1.265200e+01 -9.061934e-05 -6.765546e-09 -9.129589e-05 -2.387286e-05
1.265600e+01 -1.200034e-04 -9.144883e-09 -1.209179e-04 -2.646328e-06
1.266000e+01 -1.341080e-04 -1.204674e-08 -1.353127e-04 1.072297e-05
1.266400e+01 -1.474396e-04 -1.422235e-08 -1.488618e-04 1.300127e-05
1.266800e+01 -1.093503e-04 -1.440434e-08 -1.107908e-04 1.229082e-05
1.267200e+01 -9.935092e-05 -1.048162e-08 -1.003991e-04 -1.079996e-05
1.267600e+01 -1.092805e-04 -7.015238e-09 -1.099820e-04 5.785183e-06
1.268000e+01 -1.179857e-04 -4.796859e-09 -1.184654e-04 1.946094e-05
1.268400e+01 -1.342681e-04 -3.424775e-09 -1.346105e-04 3.817724e-06
1.268800e+01 -1.682772e-04 -2.326435e-09 -1.685099e-04 -1.612032e-05
1.269200e+01 -1.346510e-04 -8.315592e-10 -1.347341e-04 -1.823407e-05
1.269600e+01 -1.350371e-04 6.922770e-10 -1.349679e-04 -1.238409e-05
1.270000e+01 -1.240912e-04 -1.088513e-10 -1.241020e-04 -1.047973e-05
1.270400e+01 -9.425155e-05 -2.592908e-09 -9.451084e-05 1.332099e-05
1.270800e+01 -1.199395e-04 -3.582121e-09 -1.202977e-04 4.720569e-06
1.271200e+01 -1.440198e-04 -4.633958e-09 -1.444832e-04 -2.337362e-05
1.271600e+01 -1.540540e-04 -8.075719e-09 -1.548616e-04 2.107432e-05
1.272000e+01 -2.114918e-04 -1.039400e-08 -2.125312e-04 5.333053e-05
1.272400e+01 -1.935469e-04 -1.095604e-08 -1.946425e-04 -1.196609e-05
1.272800e+01 -9.601514e-05 -1.040727e-08 -9.705587e-05 -4.863969e-05
1.273200e+01 -9.811214e-05 -7.978749e-09 -9.891002e-05 -4.112206e-06
1.273600e+01 -1.763792e-04 -6.034273e-09 -1.769827e-04 1.509488e-05
1.274000e+01 -1.703226e-04 -7.651094e-09 -1.710878e-04 2.379212e-05
1.274400e+01 -1.470079e-04 -6.725464e-09 -1.476805e-04 4.928534e-05
1.274800e+01 -1.615181e-04 -2.005616e-09 -1.617187e-04 4.170027e-05
1.275200e+01 -1.238824e-04 1.210061e-09 -1.237614e-04 8.064143e-06
1.275600e+01 -1.323038e-04 3.552895e-09 -1.319485e-04 -5.807522e-05
1.276000e+01 -1.192649e-04 1.751641e-09 -1.190897e-04 -7.226015e-05
1.276400e+01 -1.159846e-04 -4.432384e-09 -1.164278e-04 -4.986609e-05
1.276800e+01 -1.403132e-04 -1.282218e-08 -1.415954e-04 -9.954858e-06
1.277200e+01 -1.758786e-04 -1.989865e-08 -1.778685e-04 -3.310042e-06
1.277600e+01 -1.746861e-04 -2.335842e-08 -1.770220e-04 -9.220093e-06
1.278000e+01 -1.818749e-04 -2.190348e-08 -1.840652e-04 2.394160e-06
1.278400e+01 -1.631352e-04 -1.860263e-08 -1.649955e-04 3.158168e-05
1.278800e+01 -1.768297e-04 -1.444185e-08 -1.782739e-04 2.295158e-05
1.279200e+01 -1.932517e-04 -1.010392e-08 -1.942621e-04 -4.402616e-06
1.279600e+01 -2.025168e-04 -4.346975e-09 -2.029515e-04 -1.125232e-05
1.280000e+01 -2.345612e-04 -8.073686e-10 -2.346420e-04 -1.697120e-05
1.280400e+01 -2.535577e-04 -6.359581e-09 -2.541937e-04 2.149947e-05
1.280800e+01 -2.626301e-04 -1.654367e-08 -2.642844e-04 4.377025e-05
1.281200e+01 -2.680596e-04 -2.106824e-08 -2.701664e-04 7.657110e-06
1.281600e+01 -2.795693e-04 -1.442886e-08 -2.810122e-04 -1.165784e-05
1.282000e+01 -2.317323e-04 -3.610515e-09 -2.320934e-04 -3.106610e-05
1.282400e+01 -2.039389e-04 2.202815e-09 -2.037186e-04 -3.497303e-05
1.282800e+01 -2.280930e-04 -4.739110e-10 -2.281404e-04 3.636115e-06
1.283200e+01 -2.845475e-04 -6.470663e-09 -2.851945e-04 2.564779e-05
1.283600e+01 -3.059562e-04 -1.089693e-08 -3.070459e-04 4.038721e-05
1.284000e+01 -2.770069e-04 -1.048981e-08 -2.780558e-04 4.664880e-05
1.284400e+01 -2.275626e-04 -5.759680e-09 -2.281385e-04 6.145947e-06
1.284800e+01 -2.135939e-04 1.359652e-09 -2.134579e-04 -2.397114e-06
1.285200e+01 -2.485223e-04 5.525000e-09 -2.479698e-04 5.629623e-05
1.285600e+01 -2.718203e-04 1.266146e-09 -2.716937e-04 3.598508e-05
1.286000e+01 -2.348065e-04 -6.438240e-09 -2.354503e-04 -4.920636e-05
1.286400e+01 -1.862263e-04 -7.781386e-09 -1.870044e-04 -2.310739e-06
1.286800e+01 -1.905033e-04 -4.772139e-09 -1.909805e-04 2.771882e-05
1.287200e+01 -1.642594e-04 -3.836068e-09 -1.646430e-04 9.017316e-06
1.287600e+01 -1.426002e-04 6.960267e-10 -1.425306e-04 8.465519e-06
1.288000e+01 -1.078067e-04 1.005906e-08 -1.068007e-04 -3.152858e-05
1.288400e+01 -6.280432e-05 1.863826e-08 -6.094050e-05 -4.678494e-05
1.288800e+01 -4.927134e-05 2.088552e-08 -4.718279e-05 2.330991e-05
1.289200e+01 -7.908387e-05 1.281127e-08 -7.780274e-05 9.397761e-05
1.289600e+01 -9.550920e-05 -1.148735e-09 -9.562408e-05 7.695141e-05
1.290000e+01 -6.033518e-05 -5.065744e-09 -6.084175e-05 8.493216e-05
1.290400e+01 -1.922807e-05 9.380710e-09 -1.828999e-05 1.001301e-04
1.290800e+01 -5.390867e-05 3.106050e-08 -5.080262e-05 3.968551e-05
1.291200e+01 -2.886878e-05 4.492173e-08 -2.437661e-05 -4.144358e-05
1.291600e+01 8.565289e-06 5.638361e-08 1.420365e-05 -5.112122e-05
1.292000e+01 5.750964e-05 6.400705e-08 6.391035e-05 -7.742742e-05
1.292400e+01 4.752311e-05 6.441202e-08 5.396431e-05 -8.709973e-05
1.292800e+01 3.345613e-05 5.323542e-08 3.877967e-05 -7.599444e-05
1.293200e+01 6.876677e-06 3.395633e-08 1.027231e-05 3.032445e-05
1.293600e+01 -6.796281e-05 1.105087e-08 -6.685772e-05 1.668605e-04
1.294000e+01 -1.076042e-04 -1.010919e-08 -1.086152e-04 1.261597e-04
1.294400e+01 -6.176266e-06 -1.140627e-08 -7.316893e-06 -1.103647e-04
1.294800e+01 5.166225e-05 2.958198e-08 5.462045e-05 -1.982672e-04
1.295200e+01 6.220161e-06 6.959749e-08 1.317991e-05 -1.548725e-04
1.295600e+01 -3.101191e-06 5.507702e-08 2.406510e-06 -2.287881e-05
1.296000e+01 2.134141e-05 4.506895e-09 2.179210e-05 1.579321e-04
1.296400e+01 -5.159052e-06 -3.382196e-08 -8.541248e-06 1.311081e-04
1.296800e+01 -7.527364e-05 -3.808765e-08 -7.908241e-05 -1.272089e-04
1.297200e+01 2.326746e-05 -2.009676e-08 2.125778e-05 -1.837819e-04
1.297600e+01 8.376220e-05 2.640586e-08 8.640279e-05 -1.210891e-04
1.298000e+01 4.309006e-05 5.408334e-08 4.849839e-05 -4.505105e-05
1.298400e+01 -2.964615e-05 2.889862e-08 -2.675628e-05 5.333278e-05
1.298800e+01 2.718600e-05 -2.773037e-08 2.441296e-05 5.346140e-05
1.299200e+01 7.255619e-05 -4.578202e-08 6.797799e-05 -1.430450e-05
1.299600e+01 5.745001e-05 -2.651203e-08 5.479880e-05 -2.146014e-05
1.300000e+01 -4.680817e-05 -1.183693e-08 -4.799187e-05 -5.229242e-05
1.300400e+01 -9.470657e-05 -4.164271e-08 -9.887084e-05 -1.682417e-05
1.300800e+01 -5.721486e-05 -7.669607e-08 -6.488447e-05 3.385947e-05
1.301200e+01 6.383798e-05 -6.376896e-08 5.746108e-05 -7.611224e-06
1.301600e+01 6.139962e-05 1.054751e-08 6.245438e-05 -6.420897e-05
1.302000e+01 3.618519e-05 5.274617e-08 4.145980e-05 -9.815863e-05
1.302400e+01 5.322525e-05 2.363161e-08 5.558841e-05 -5.201543e-05
1.302800e+01 2.121486e-05 -3.160943e-08 1.805392e-05 -2.522774e-05
1.303200e+01 4.399711e-06 -7.306361e-08 -2.906649e-06 7.797333e-06
1.303600e+01 8.869250e-06 -7.139086e-08 1.730164e-06 2.558307e-05
1.304000e+01 1.502868e-05 -4.028825e-08 1.099986e-05 -5.650360e-07
1.304400e+01 -1.251109e-06 -1.794253e-08 -3.045362e-06 1.458226e-05
1.304800e+01 -6.365049e-05 -3.353974e-08 -6.700447e-05 7.381487e-05
1.305200e+01 -4.893738e-05 -9.021527e-08 -5.795891e-05 1.288440e-04
1.305600e+01 -2.741777e-05 -1.142686e-07 -3.884464e-05 5.695692e-05
1.306000e+01 3.394660e-07 -7.032042e-08 -6.692576e-06 -3.612564e-05
1.306400e+01 -2.399789e-06 5.210179e-09 -1.878771e-06 -3.303654e-05
1.306800e+01 1.276543e-06 3.729822e-08 5.006365e-06 -1.400313e-05
1.307200e+01 -3.284290e-06 1.718085e-08 -1.566206e-06 1.061312e-05
1.307600e+01 -7.132138e-05 -2.052368e-08 -7.337375e-05 5.151677e-05
1.308000e+01 -7.316618e-05 -6.283783e-08 -7.944996e-05 4.662394e-05
1.308400e+01 -4.140424e-05 -7.044430e-08 -4.844867e-05 5.043365e-05
1.308800e+01 -3.568593e-06 -5.074559e-08 -8.643152e-06 1.204688e-04
1.309200e+01 -9.638542e-06 -3.407206e-08 -1.304575e-05 1.091528e-04
1.309600e+01 3.336665e-05 -3.394140e-08 2.997251e-05 1.268109e-05
1.310000e+01 6.541079e-05 -8.264305e-09 6.458436e-05 -1.462879e-05
1.310400e+01 3.867772e-05 3.670248e-08 4.234797e-05 -1.044166e-05
1.310800e+01 -1.457892e-05 5.539255e-08 -9.039669e-06 7.535695e-05
1.311200e+01 -3.838419e-05 2.586181e-08 -3.579801e-05 1.118357e-04
1.311600e+01 -1.354557e-07 -8.955659e-09 -1.031022e-06 2.431653e-05
1.312000e+01 1.373174e-04 1.578403e-08 1.388958e-04 3.742496e-06
1.312400e+01 6.585424e-05 1.198267e-07 7.783691e-05 7.071577e-05
1.312800e+01 7.411920e-06 1.461135e-07 2.202327e-05 7.989685e-05
1.313200e+01 7.768884e-05 9.359461e-08 8.704830e-05 -5.771887e-05
1.313600e+01 9.072000e-05 8.605906e-08 9.932590e-05 -1.142207e-04
1.314000e+01 7.911127e-05 1.129946e-07 9.041073e-05 -3.863436e-05
1.314400e+01 8.714961e-05 1.240801e-07 9.955763e-05 -1.932886e-05
1.314800e+01 1.190304e-04 1.083198e-07 1.298624e-04 -3.474711e-05
1.315200e+01 7.727124e-05 8.321005e-08 8.559225e-05 9.506206e-06
1.315600e+01 8.021399e-06 4.429962e-08 1.245136e-05 4.518472e-05
1.316000e+01 6.550003e-05 1.579269e-08 6.707930e-05 -2.626072e-05
1.316400e+01 8.096237e-05 7.119051e-08 8.808142e-05 -3.009991e-05
1.316800e+01 5.661081e-05 1.328433e-07 6.989514e-05 4.683428e-05
1.317200e+01 -2.971743e-06 1.151410e-07 8.542358e-06 9.359340e-05
1.317600e+01 2.399220e-06 2.926749e-08 5.325969e-06 4.984265e-05
1.318000e+01 7.283882e-05 -6.770613e-09 7.216175e-05 -7.581624e-05
1.318400e+01 9.987533e-05 7.118662e-08 1.069940e-04 -5.974045e-05
1.318800e+01 4.019786e-05 1.576755e-07 5.596540e-05 4.515795e-05
1.319200e+01 2.607812e-05 1.253406e-07 3.861218e-05 7.537624e-05
1.319600e+01 6.977876e-05 3.258291e-08 7.303705e-05 -3.234124e-05
1.320000e+01 1.191978e-04 1.159048e-08 1.203569e-04 -6.408588e-05
1.320400e+01 5.799444e-05 8.794156e-08 6.678860e-05 5.171529e-05
1.320800e+01 9.289823e-06 1.304421e-07 2.233403e-05 5.569874e-05
1.321200e+01 4.339080e-05 1.095579e-07 5.434659e-05 2.256236e-05
1.321600e+01 7.207119e-05 9.781434e-08 8.185262e-05 5.873599e-05
1.322000e+01 4.469240e-05 1.051084e-07 5.520324e-05 7.088215e-06
1.322400e+01 8.492527e-05 1.015835e-07 9.508362e-05 -2.571783e-05
1.322800e+01 8.997078e-05 1.209623e-07 1.020670e-04 -5.694372e-05
1.323200e+01 1.052283e-04 1.302521e-07 1.182535e-04 -1.473365e-04
1.323600e+01 1.412816e-04 1.228471e-07 1.535663e-04 -1.301863e-04
1.324000e+01 1.239982e-04 1.104072e-07 1.350390e-04 -2.909923e-05
1.324400e+01 9.101691e-05 6.895266e-08 9.791218e-05 5.024218e-05
1.324800e+01 1.091074e-04 2.003489e-08 1.111109e-04 -3.738364e-05
1.325200e+01 1.900881e-04 3.239298e-08 1.933274e-04 -7.068794e-05
1.325600e+01 1.625392e-04 9.998469e-08 1.725377e-04 -3.497958e-05
1.326000e+01 1.280063e-04 9.165107e-08 1.371714e-04 -2.711772e-05
1.326400e+01 9.892943e-05 2.116920e-08 1.010464e-04 -2.759813e-05
1.326800e+01 1.115890e-04 -3.830425e-08 1.077586e-04 -3.908468e-05
1.327200e+01 1.057452e-04 -3.857602e-08 1.018876e-04 -2.476877e-05
1.327600e+01 1.119268e-04 -2.150500e-08 1.097763e-04 -1.147341e-05
1.328000e+01 9.181991e-05 -1.154856e-08 9.066505e-05 -5.277527e-05
1.328400e+01 1.103460e-04 -1.652926e-08 1.086931e-04 -5.194246e-05
1.328800e+01 1.202456e-04 -1.228837e-08 1.190167e-04 -2.499141e-05
1.329200e+01 1.136064e-04 -8.641889e-09 1.127423e-04 7.157510e-05
1.329600e+01 1.063618e-04 -2.915378e-08 1.034464e-04 1.632098e-04
1.330000e+01 3.126978e-05 -5.804912e-08 2.546487e-05 1.390739e-05
1.330400e+01 4.499655e-05 -8.146189e-08 3.685036e-05 -1.335440e-04
1.330800e+01 1.444409e-04 -3.838159e-08 1.406027e-04 -8.483055e-05
1.331200e+01 9.906320e-05 5.764675e-08 1.048279e-04 -2.124104e-06
1.331600e+01 5.750795e-05 4.065172e-08 6.157313e-05 1.634712e-06
1.332000e+01 1.683604e-04 -5.569342e-08 1.627910e-04 1.320391e-05
1.332400e+01 1.864117e-04 -4.931045e-08 1.814806e-04 1.052013e-04
1.332800e+01 1.083695e-04 -1.336115e-08 1.070334e-04 8.951277e-05
1.333200e+01 1.197838e-04 -4.509367e-08 1.152745e-04 -5.728508e-05
1.333600e+01 1.226381e-04 -5.291477e-08 1.173466e-04 -5.756723e-05
1.334000e+01 9.734382e-05 -5.001823e-08 9.234200e-05 6.572490e-05
1.334400e+01 7.757753e-05 -8.627168e-08 6.895036e-05 1.083710e-04
1.334800e+01 1.318612e-04 -1.022984e-07 1.216314e-04 -7.770705e-06
1.335200e+01 1.504976e-04 -4.445722e-11 1.504932e-04 -1.164319e-04
1.335600e+01 1.326238e-04 1.077234e-07 1.433961e-04 -8.619503e-05
1.336000e+01 1.486244e-04 7.150387e-08 1.557748e-04 -7.758057e-05
1.336400e+01 1.612937e-04 -2.998783e-08 1.582950e-04 -8.479385e-05
1.336800e+01 1.628040e-04 -6.322328e-08 1.564817e-04 9.233327e-07
1.337200e+01 1.155797e-04 -2.631748e-08 1.129480e-04 1.040168e-04
1.337600e+01 1.130441e-04 -2.577951e-08 1.104662e-04 6.870527e-05
1.338000e+01 1.738012e-04 -3.629881e-08 1.701713e-04 2.828130e-05
1.338400e+01 2.039717e-04 1.276294e-09 2.040993e-04 -3.528306e-05
1.338800e+01 1.781110e-04 3.810684e-08 1.819217e-04 -7.184107e-05
1.339200e+01 1.195994e-04 1.943401e-08 1.215428e-04 1.238495e-05
1.339600e+01 8.111686e-05 -4.970075e-08 7.614679e-05 1.728617e-04
1.340000e+01 -1.020476e-05 -1.127186e-07 -2.147662e-05 7.006623e-05
1.340400e+01 1.028984e-04 -1.384342e-07 8.905502e-05 -4.695272e-05
1.340800e+01 2.213768e-04 8.598527e-09 2.222367e-04 -6.346991e-05
1.341200e+01 9.901302e-05 2.035706e-07 1.193701e-04 3.990161e-05
1.341600e+01 -4.683844e-05 1.412436e-07 -3.271408e-05 1.681124e-04
1.342000e+01 -7.974576e-07 -9.222011e-08 -1.001947e-05 1.356657e-04
1.342400e+01 -1.165171e-05 -1.233426e-07 -2.398596e-05 -2.933297e-05
1.342800e+01 2.332422e-05 1.445203e-08 2.476943e-05 -1.197834e-04
1.343200e+01 7.399907e-05 1.729474e-07 9.129381e-05 -7.954110e-05
1.343600e+01 3.061492e-05 2.256644e-07 5.318136e-05 7.111801e-05
1.344000e+01 -7.146651e-05 7.129892e-08 -6.433662e-05 8.651969e-05
1.344400e+01 -1.894973e-05 -1.673069e-07 -3.568041e-05 1.356893e-04
1.344800e+01 -8.113965e-05 -1.951695e-07 -1.006566e-04 2.446779e-04
1.345200e+01 -1.325900e-04 -1.519293e-07 -1.477830e-04 -2.160180e-05
1.345600e+01 1.645783e-04 -5.681815e-08 1.588965e-04 -3.048399e-04
1.346000e+01 2.819119e-04 3.599365e-07 3.179056e-04 -3.337824e-04
1.346400e+01 1.366366e-04 6.758933e-07 2.042259e-04 -1.865060e-04
1.346800e+01 9.568086e-05 4.014983e-07 1.358307e-04 -7.588657e-05
1.347200e+01 9.021618e-05 -3.616260e-09 8.985455e-05 -3.462052e-05
1.347600e+01 7.264227e-05 -1.184346e-07 6.079881e-05 -6.707744e-05
1.348000e+01 1.141810e-04 1.984356e-09 1.143794e-04 -6.860310e-05
1.348400e+01 1.456639e-04 1.767985e-07 1.633437e-04 1.478505e-05
1.348800e+01 1.434574e-04 2.091887e-07 1.643763e-04 -4.313591e-05
1.349200e+01 1.944513e-04 1.365470e-07 2.081060e-04 -9.431494e-05
1.349600e+01 1.478868e-04 1.554523e-07 1.634321e-04 -6.611642e-05
1.350000e+01 1.042576e-04 1.523843e-07 1.194961e-04 -1.817151e-05
1.350400e+01 1.220205e-04 1.091138e-07 1.329319e-04 5.435896e-05
1.350800e+01 1.000501e-04 1.265895e-07 1.127090e-04 1.101238e-04
1.351200e+01 1.402902e-04 1.120332e-07 1.514936e-04 4.221023e-05
1.351600e+01 1.743024e-04 1.181173e-07 1.861141e-04 -1.622787e-05
1.352000e+01 1.133045e-04 1.553379e-07 1.288383e-04 6.164955e-05
1.352400e+01 8.599182e-05 6.878264e-08 9.287008e-05 9.070239e-05
1.352800e+01 1.254621e-04 -3.202759e-08 1.222594e-04 2.184321e-05
1.353200e+01 1.044364e-04 5.236236e-08 1.096726e-04 -1.194649e-05
1.353600e+01 1.933897e-04 1.619937e-07 2.095891e-04 4.864420e-05
1.354000e+01 1.686732e-04 2.524922e-07 1.939225e-04 1.302725e-04
1.354400e+01 1.421907e-04 1.421677e-07 1.564075e-04 1.180517e-04
1.354800e+01 7.487203e-05 -5.408837e-08 6.946319e-05 8.409806e-05
1.355200e+01 1.083639e-04 -1.995829e-07 8.840558e-05 4.653470e-05
1.355600e+01 1.064525e-04 -9.507839e-08 9.694465e-05 -2.357298e-05
1.356000e+01 1.261943e-04 1.236915e-07 1.385635e-04 -1.046388e-05
1.356400e+01 1.015472e-04 2.680850e-07 1.283557e-04 1.594804e-05
1.356800e+01 4.248141e-05 1.729218e-07 5.977359e-05 1.483673e-04
1.357200e+01 4.159079e-05 -1.286173e-07 2.872905e-05 1.408630e-04
1.357600e+01 1.189941e-05 -2.711157e-07 -1.521216e-05 -1.139400e-04
1.358000e+01 -9.506255e-05 -9.986555e-08 -1.050491e-04 -1.118406e-04
1.358400e+01 -2.322296e-04 2.489680e-08 -2.297400e-04 -6.487496e-05
1.358800e+01 -2.136534e-04 -1.667433e-07 -2.303277e-04 -2.541514e-05
1.359200e+01 -5.560583e-06 -3.723849e-07 -4.279907e-05 3.046660e-05
1.359600e+01 2.575153e-04 -2.300256e-07 2.345127e-04 2.847119e-05
1.360000e+01 3.496166e-04 1.935885e-07 3.689755e-04 -3.608084e-06
1.360400e+01 3.769215e-04 4.688767e-07 4.238091e-04 -1.652820e-05
1.360800e+01 4.268326e-04 5.217944e-07 4.790120e-04 -1.108549e-05
1.361200e+01 3.830298e-04 5.490495e-07 4.379347e-04 7.398469e-05
1.361600e+01 2.890813e-04 4.711339e-07 3.361947e-04 8.347349e-05
1.362000e+01 2.985141e-04 2.697342e-07 3.254875e-04 4.308878e-05
1.362400e+01 3.054768e-04 2.285031e-07 3.283271e-04 1.084641e-04
1.362800e+01 2.418031e-04 3.309449e-07 2.748976e-04 7.497426e-05
1.363200e+01 1.401791e-04 3.522960e-07 1.754087e-04 8.117723e-05
1.363600e+01 -6.839860e-06 2.106822e-07 1.422836e-05 1.609503e-04
1.364000e+01 4.271835e-05 -5.948501e-08 3.676984e-05 -3.861011e-05
1.364400e+01 3.241043e-04 -5.937343e-09 3.235106e-04 -1.972251e-04
1.364800e+01 2.648795e-04 6.078860e-07 3.256681e-04 -1.068698e-04
1.365200e+01 2.324315e-05 7.843607e-07 1.016792e-04 -1.680641e-05
1.365600e+01 5.935086e-05 1.404321e-07 7.339407e-05 3.283560e-05
1.366000e+01 1.335486e-04 -3.336278e-07 1.001858e-04 4.196161e-05
1.366400e+01 1.459557e-04 -2.420531e-07 1.217504e-04 4.322356e-05
1.366800e+01 8.388023e-05 4.236371e-08 8.811661e-05 -5.266369e-06
1.367200e+01 6.074009e-05 1.151073e-07 7.225082e-05 -7.167491e-05
1.367600e+01 2.541145e-05 1.906468e-08 2.731792e-05 -7.118436e-05
1.368000e+01 1.251813e-04 -1.824052e-07 1.069408e-04 -3.519047e-05
1.368400e+01 1.887502e-04 -2.374074e-07 1.650095e-04 -3.480673e-05
1.368800e+01 1.107409e-04 -1.146388e-07 9.927704e-05 -2.975573e-05
1.369200e+01 7.430231e-05 -5.756600e-08 6.854571e-05 -7.224328e-05
1.369600e+01 1.155157e-04 -7.443815e-08 1.080719e-04 -5.958426e-05
1.370000e+01 6.457746e-05 -6.124222e-08 5.845324e-05 4.842213e-05
1.370400e+01 5.256448e-05 -1.745043e-07 3.511404e-05 5.761011e-05
1.370800e+01 7.694079e-05 -2.631464e-07 5.062615e-05 -8.362579e-05
1.371200e+01 1.022080e-04 -8.223705e-08 9.398433e-05 -1.095355e-04
1.371600e+01 2.899823e-05 2.514587e-07 5.414410e-05 -1.541188e-05
1.372000e+01 -4.554959e-05 2.785025e-07 -1.769934e-05 2.917641e-05
1.372400e+01 2.385120e-05 4.218213e-08 2.806941e-05 -1.414652e-05
1.372800e+01 8.423558e-05 6.550491e-08 9.078607e-05 -5.907573e-05
1.373200e+01 9.672201e-05 2.777607e-07 1.244981e-04 6.061449e-05
1.373600e+01 1.158215e-05 2.351674e-07 3.509890e-05 1.767802e-04
1.374000e+01 7.957489e-06 -1.731364e-07 -9.356152e-06 7.739840e-05
1.374400e+01 3.785316e-05 -3.246008e-07 5.393077e-06 -1.636992e-05
1.374800e+01 8.610966e-05 -8.208550e-09 8.528880e-05 7.149087e-05
1.375200e+01 -5.742423e-05 2.982015e-07 -2.760408e-05 8.608949e-05
1.375600e+01 2.490343e-05 -2.162606e-08 2.274083e-05 -1.450969e-04
1.376000e+01 1.289562e-04 -2.312673e-07 1.058295e-04 -1.027584e-04
1.376400e+01 8.470126e-05 -5.312899e-08 7.938836e-05 -3.224875e-05
1.376800e+01 7.087550e-05 1.517812e-08 7.239331e-05 -3.713646e-05
1.377200e+01 1.213958e-04 -7.130924e-08 1.142649e-04 -7.249171e-05
1.377600e+01 9.260328e-05 -8.454025e-08 8.414926e-05 -5.182877e-05
1.378000e+01 4.982435e-05 -1.450593e-07 3.531843e-05 -8.764752e-06
1.378400e+01 5.006311e-05 -2.796800e-07 2.209511e-05 -1.453579e-05
1.378800e+01 8.353398e-05 -3.256865e-07 5.096533e-05 -3.651772e-05
1.379200e+01 6.333558e-05 -1.451814e-07 4.881744e-05 -2.202626e-05
1.379600e+01 2.206161e-06 1.340457e-07 1.561073e-05 -1.046077e-05
1.380000e+01 -4.246468e-05 2.036009e-07 -2.210459e-05 1.064739e-05
1.380400e+01 -8.377209e-07 -9.878845e-08 -1.071657e-05 8.198772e-05
1.380800e+01 -9.489561e-06 -4.377487e-07 -5.326443e-05 -1.100762e-05
1.381200e+01 -8.395934e-06 -4.477497e-07 -5.317090e-05 2.013847e-05
1.381600e+01 -1.663704e-05 -1.186555e-07 -2.850259e-05 6.882917e-05
1.382000e+01 2.442842e-05 1.562764e-07 4.005606e-05 -6.513224e-05
1.382400e+01 1.048620e-05 2.989756e-07 4.038377e-05 -5.031056e-05
1.382800e+01 -8.042626e-05 2.659851e-07 -5.382775e-05 4.756435e-05
1.383200e+01 -8.848635e-05 3.029859e-08 -8.545649e-05 3.653594e-05
1.383600e+01 -1.384848e-05 -6.023705e-08 -1.987219e-05 3.966072e-05
1.384000e+01 -4.949141e-05 1.241642e-07 -3.707499e-05 -2.931572e-05
1.384400e+01 -6.354192e-05 1.721764e-07 -4.632428e-05 -9.109822e-05
1.384800e+01 -4.406939e-05 8.002883e-08 -3.606650e-05 -7.418051e-05
1.385200e+01 -4.654088e-05 2.871982e-08 -4.366889e-05 -6.044429e-05
1.385600e+01 -2.499739e-05 -1.099904e-08 -2.609729e-05 1.656357e-05
1.386000e+01 -1.862087e-04 -3.714365e-08 -1.899231e-04 1.765826e-04
1.386400e+01 -2.144510e-04 -3.031429e-07 -2.447653e-04 2.416141e-04
1.386800e+01 -5.115002e-05 -4.867389e-07 -9.982390e-05 -6.165084e-05
1.387200e+01 3.858875e-05 -1.540425e-07 2.318450e-05 -1.360596e-04
1.387600e+01 -3.949454e-05 1.966381e-07 -1.983073e-05 -2.736511e-05
1.388000e+01 -7.041081e-05 -2.956057e-08 -7.336687e-05 -2.622813e-05
1.388400e+01 -3.299443e-05 -4.142336e-07 -7.441778e-05 -3.753369e-05
1.388800e+01 2.812068e-05 -4.464328e-07 -1.652260e-05 5.335769e-05
1.389200e+01 -2.478278e-06 -2.247671e-07 -2.495499e-05 2.042236e-05
1.389600e+01 3.953963e-05 -7.907816e-08 3.163182e-05 -2.192279e-05
1.390000e+01 1.289143e-04 1.201783e-07 1.409321e-04 -5.325703e-05
1.390400e+01 1.128810e-04 3.188331e-07 1.447643e-04 -7.836027e-05
1.390800e+01 9.079241e-05 1.753918e-07 1.083316e-04 -4.662286e-05
1.391200e+01 5.104295e-05 -6.341836e-08 4.470112e-05 4.837021e-05
1.391600e+01 1.100445e-04 -1.104267e-07 9.900187e-05 1.156358e-04
1.392000e+01 1.211546e-04 1.057383e-07 1.317284e-04 4.342596e-05
1.392400e+01 1.404985e-04 2.945362e-07 1.699521e-04 -8.277006e-05
1.392800e+01 1.421639e-04 3.945822e-07 1.816222e-04 -1.284541e-05
1.393200e+01 1.240033e-04 3.514497e-07 1.591483e-04 1.003529e-04
1.393600e+01 1.678187e-04 2.229672e-07 1.901155e-04 1.029650e-04
1.394000e+01 1.716409e-04 2.905638e-07 2.006972e-04 5.532895e-05
1.394400e+01 1.427125e-04 4.375955e-07 1.864720e-04 2.285312e-05
1.394800e+01 1.500066e-04 4.648376e-07 1.964903e-04 -9.773240e-05
1.395200e+01 1.686995e-04 5.092646e-07 2.196260e-04 -1.139178e-04
1.395600e+01 1.298534e-04 5.282647e-07 1.826798e-04 -5.373308e-06
1.396000e+01 1.554756e-04 2.842714e-07 1.839027e-04 7.624013e-05
1.396400e+01 1.675972e-04 5.671248e-08 1.732685e-04 8.863462e-05
1.396800e+01 2.206206e-04 9.581575e-08 2.302021e-04 1.055938e-04
1.397200e+01 1.276500e-04 3.700786e-07 1.646578e-04 5.273175e-05
1.397600e+01 1.101249e-04 3.684419e-07 1.469691e-04 -1.188182e-04
1.398000e+01 2.199164e-04 1.953005e-07 2.394465e-04 -1.402071e-04
1.398400e+01 2.214823e-04 2.250198e-07 2.439843e-04 -1.199069e-05
1.398800e+01 1.804624e-04 2.156839e-07 2.020308e-04 3.400751e-05
1.399200e+01 2.380666e-04 7.476025e-08 2.455426e-04 -6.857095e-06
1.399600e+01 2.315677e-04 1.371859e-07 2.452863e-04 1.562194e-05
1.400000e+01 1.559850e-04 2.902420e-07 1.850092e-04 4.880493e-05
1.400400e+01 1.699152e-04 2.713190e-07 1.970471e-04 5.028811e-05
1.400800e+01 1.738963e-04 2.011554e-07 1.940118e-04 -1.148715e-05
1.401200e+01 2.671709e-04 1.575317e-07 2.829241e-04 -4.549753e-05
1.401600e+01 2.330066e-04 3.327842e-07 2.662851e-04 -8.332880e-05
1.402000e+01 1.586836e-04 4.542219e-07 2.041058e-04 -4.877473e-05
1.402400e+01 1.108846e-04 3.664477e-07 1.475294e-04 -4.536731e-05
1.402800e+01 1.476213e-04 1.272612e-07 1.603474e-04 -1.517697e-05
1.403200e+01 1.439318e-04 -2.542647e-08 1.413892e-04 8.428728e-05
1.403600e+01 1.152481e-04 -3.577444e-08 1.116706e-04 1.069494e-04
1.404000e+01 1.505394e-04 4.945204e-08 1.554846e-04 -7.153930e-05
1.404400e+01 2.091905e-04 2.272770e-07 2.319182e-04 -1.106864e-04
1.404800e+01 1.575092e-04 3.904219e-07 1.965514e-04 -3.342887e-05
1.405200e+01 1.180662e-04 3.044729e-07 1.485135e-04 -6.481053e-06
1.405600e+01 1.054312e-04 1.425839e-07 1.196895e-04 2.241351e-05
1.406000e+01 1.193708e-04 6.467876e-08 1.258386e-04 5.976969e-05
1.406400e+01 1.747119e-04 6.861225e-08 1.815731e-04 2.863834e-05
1.406800e+01 2.147547e-04 1.324195e-07 2.279966e-04 1.466146e-05
1.407200e+01 1.075943e-04 9.875373e-08 1.174696e-04 -5.450361e-05
1.407600e+01 1.872150e-04 -1.779815e-07 1.694168e-04 -3.900780e-05
1.408000e+01 1.728769e-04 -1.199926e-07 1.608777e-04 4.266375e-05
1.408400e+01 9.715042e-05 5.889557e-08 1.030400e-04 6.933856e-05
1.408800e+01 1.220156e-04 -9.312242e-10 1.219225e-04 2.938343e-05
1.409200e+01 2.047627e-04 -7.895473e-08 1.968672e-04 5.182222e-05
1.409600e+01 1.841561e-04 -4.176270e-08 1.799799e-04 1.403105e-04
1.410000e+01 7.717219e-05 -1.089494e-07 6.627725e-05 5.217155e-05
1.410400e+01 9.538041e-05 -2.260166e-07 7.277876e-05 -5.549873e-05
1.410800e+01 1.520427e-04 -5.887748e-08 1.461549e-04 -6.867500e-05
1.411200e+01 1.526725e-04 1.487792e-07 1.675505e-04 -7.879758e-05
1.411600e+01 2.011221e-04 1.188880e-07 2.130109e-04 -5.689553e-05
1.412000e+01 1.794738e-04 1.549359e-07 1.949674e-04 1.197989e-05
1.412400e+01 1.145791e-04 2.011289e-07 1.346920e-04 4.723902e-05
1.412800e+01 1.180133e-04 6.245371e-08 1.242587e-04 -3.478007e-06
1.413200e+01 2.059841e-04 -3.110032e-09 2.056731e-04 -1.437033e-05
1.413600e+01 1.188500e-04 2.219043e-07 1.410404e-04 -2.691476e-06
1.414000e+01 1.564395e-04 2.828486e-07 1.847243e-04 -1.748369e-05
1.414400e+01 1.774745e-04 2.872769e-07 2.062022e-04 -5.370050e-05
1.414800e+01 1.547438e-04 2.906458e-07 1.838084e-04 -2.773513e-05
1.415200e+01 1.268571e-04 2.240634e-07 1.492635e-04 2.936148e-05
1.415600e+01 1.187408e-04 1.083632e-07 1.295772e-04 4.002917e-05
1.416000e+01 1.448393e-04 3.547517e-08 1.483868e-04 4.171010e-06
1.416400e+01 1.106307e-04 1.022919e-07 1.208599e-04 1.836894e-05
1.416800e+01 1.056949e-04 1.666745e-07 1.223624e-04 6.512491e-05
1.417200e+01 1.715855e-04 1.269516e-07 1.842807e-04 -4.312095e-05
1.417600e+01 1.680455e-04 8.166796e-08 1.762123e-04 -4.710562e-05
1.418000e+01 9.410168e-05 1.730703e-08 9.583238e-05 7.426841e-05
1.418400e+01 6.729767e-05 -9.061193e-08 5.823648e-05 6.664536e-06
1.418800e+01 1.670492e-04 -4.367200e-08 1.626820e-04 -5.682262e-05
1.419200e+01 1.685535e-04 2.881961e-07 1.973731e-04 -3.070979e-05
1.419600e+01 1.253470e-04 3.785729e-07 1.632043e-04 -5.926214e-05
1.420000e+01 2.064442e-04 7.887731e-08 2.143320e-04 -5.229183e-05
1.420400e+01 1.889203e-04 -1.323053e-08 1.875972e-04 -2.171548e-05
1.420800e+01 1.295838e-04 6.129288e-08 1.357131e-04 6.208450e-05
1.421200e+01 1.162035e-04 2.142540e-08 1.183460e-04 8.689056e-05
1.421600e+01 8.804520e-05 -4.345032e-08 8.370017e-05 1.511104e-05
1.422000e+01 2.237583e-04 -5.827713e-08 2.179306e-04 9.095668e-06
1.422400e+01 2.426978e-04 1.031934e-07 2.530172e-04 5.233593e-06
1.422800e+01 1.759280e-04 1.607540e-07 1.920034e-04 -1.283336e-05
1.423200e+01 1.300672e-04 1.408524e-07 1.441524e-04 -5.708441e-06
1.423600e+01 1.169179e-04 1.592457e-07 1.328425e-04 2.154704e-05
1.424000e+01 1.347616e-04 8.475747e-08 1.432374e-04 -3.986126e-05
1.424400e+01 1.695284e-04 2.793567e-08 1.723220e-04 -7.433158e-05
1.424800e+01 1.375905e-04 1.426377e-07 1.518543e-04 -7.321782e-05
1.425200e+01 1.315736e-04 2.108339e-07 1.526570e-04 -4.456713e-05
1.425600e+01 1.587583e-04 2.309323e-07 1.818515e-04 -2.931723e-05
1.426000e+01 1.276415e-04 2.556419e-07 1.532057e-04 6.779584e-06
1.426400e+01 1.143399e-04 1.438176e-07 1.287216e-04 8.514216e-05
1.426800e+01 1.102816e-04 1.511137e-08 1.117928e-04 1.063315e-04
1.427200e+01 1.122444e-04 -6.078150e-09 1.116366e-04 3.756104e-05
1.427600e+01 1.324913e-04 5.713429e-08 1.382047e-04 -6.366945e-05
1.428000e+01 1.270520e-04 1.108092e-07 1.381329e-04 -4.793223e-05
1.428400e+01 1.855772e-04 3.481172e-08 1.890584e-04 -2.344713e-05
1.428800e+01 1.785724e-04 5.032927e-09 1.790757e-04 -1.731911e-07
1.429200e+01 1.613264e-04 4.638876e-09 1.617902e-04 4.928256e-06
1.429600e+01 1.423444e-04 1.420464e-08 1.437649e-04 -4.872741e-06
1.430000e+01 7.512022e-05 5.388332e-08 8.050855e-05 1.468798e-05
1.430400e+01 5.601531e-05 -1.357714e-08 5.465759e-05 7.725506e-05
1.430800e+01 9.357920e-05 -1.325033e-07 8.032887e-05 8.004538e-05
1.431200e+01 1.460725e-04 -1.008885e-07 1.359836e-04 -1.026411e-05
1.431600e+01 1.549390e-04 1.343836e-07 1.683773e-04 1.818405e-06
1.432000e+01 1.226357e-04 2.918609e-07 1.518218e-04 3.293735e-05
1.432400e+01 1.876327e-04 1.337163e-07 2.010043e-04 2.413301e-05
1.432800e+01 1.393414e-04 -2.555908e-08 1.367855e-04 -3.077460e-06
1.433200e+01 1.411943e-04 -7.756323e-08 1.334379e-04 -6.424372e-06
1.433600e+01 1.645066e-04 6.481744e-08 1.709884e-04 -3.425439e-05
1.434000e+01 1.032422e-04 2.404282e-07 1.272850e-04 -2.547613e-05
1.434400e+01 8.899357e-05 1.800646e-07 1.070000e-04 1.638911e-05
1.434800e+01 1.309304e-04 -8.260237e-09 1.301044e-04 -1.781359e-05
1.435200e+01 1.489439e-04 -1.179310e-07 1.371508e-04 -4.403573e-05
1.435600e+01 1.350030e-04 -8.090456e-08 1.269125e-04 -4.414898e-05
1.436000e+01 1.184258e-04 6.096207e-08 1.245220e-04 -2.718879e-06
1.436400e+01 1.012310e-04 1.127261e-07 1.125036e-04 5.498780e-05
1.436800e+01 6.916786e-05 -2.951818e-08 6.621605e-05 1.441039e-05
1.437200e+01 1.350100e-04 -2.180397e-07 1.132061e-04 -3.196844e-05
1.437600e+01 1.459603e-04 -2.039405e-07 1.255662e-04 -4.315516e-05
1.438000e+01 1.523291e-04 -4.479537e-08 1.478496e-04 -3.791389e-05
1.438400e+01 9.680141e-05 2.157657e-07 1.183780e-04 1.920500e-05
1.438800e+01 5.702985e-05 2.896267e-07 8.599252e-05 4.075167e-05
1.439200e+01 8.408169e-05 7.154186e-08 9.123587e-05 8.956214e-06
1.439600e+01 1.016599e-04 -1.381354e-07 8.784639e-05 2.339075e-05
1.440000e+01 1.084219e-04 -2.030373e-07 8.811815e-05 5.453305e-06
1.440400e+01 1.117720e-04 -1.524457e-07 9.652746e-05 -3.416032e-05
1.440800e+01 1.308842e-04 -2.842867e-08 1.280413e-04 -5.756972e-06
1.441200e+01 1.099837e-04 1.038021e-07 1.203639e-04 3.816942e-05
1.441600e+01 1.071632e-04 8.882640e-08 1.160458e-04 7.489609e-05
1.442000e+01 1.070516e-04 1.236956e-08 1.082886e-04 5.024247e-05
1.442400e+01 1.107993e-04 5.342804e-09 1.113336e-04 -2.884294e-06
1.442800e+01 9.068454e-05 6.292934e-08 9.697748e-05 2.030777e-05
1.443200e+01 5.792528e-05 1.184676e-07 6.977205e-05 -1.877715e-05
1.443600e+01 1.225590e-04 1.878880e-07 1.413478e-04 -4.253905e-05
1.444000e+01 1.343855e-04 3.377736e-07 1.681628e-04 -3.958516e-05
1.444400e+01 1.066996e-04 3.852020e-07 1.452198e-04 -7.262842e-06
1.444800e+01 3.314343e-05 2.409154e-07 5.723497e-05 1.193633e-05
1.445200e+01 6.552682e-06 7.742222e-09 7.326904e-06 3.010004e-06
1.445600e+01 2.644829e-05 -6.538140e-08 1.991015e-05 -3.060707e-05
1.446000e+01 6.688057e-05 2.145070e-08 6.902564e-05 -4.857497e-05
1.446400e+01 1.010730e-04 1.133352e-07 1.124065e-04 -1.900542e-06
1.446800e+01 3.220344e-05 1.289427e-07 4.509771e-05 2.537890e-05
1.447200e+01 2.320593e-05 -2.230707e-09 2.298286e-05 4.233659e-05
1.447600e+01 2.455553e-05 -1.190240e-07 1.265313e-05 2.716618e-05
1.448000e+01 1.504581e-05 -1.280375e-07 2.242060e-06 -3.487671e-05
1.448400e+01 4.843148e-05 -1.114675e-08 4.731681e-05 -5.143681e-05
1.448800e+01 3.275397e-05 2.252330e-07 5.527726e-05 -1.741995e-05
1.449200e+01 2.614569e-05 2.931256e-07 5.545825e-05 1.963684e-05
1.449600e+01 1.807231e-05 1.094205e-07 2.901437e-05 6.082839e-06
1.450000e+01 6.240723e-05 -6.729545e-08 5.567769e-05 -1.662158e-05
1.450400e+01 6.126102e-05 -1.320342e-08 5.994068e-05 -3.550120e-07
1.450800e+01 3.075982e-05 1.098292e-07 4.174274e-05 1.872278e-05
1.451200e+01 5.299066e-05 7.708573e-08 6.069923e-05 -8.821935e-06
1.451600e+01 9.973031e-05 -4.239811e-08 9.549050e-05 -2.160430e-05
1.452000e+01 1.138805e-04 -5.738595e-08 1.081419e-04 2.597548e-05
1.452400e+01 9.559577e-05 4.834539e-08 1.004303e-04 3.467150e-05
1.452800e+01 1.058488e-04 1.543095e-07 1.212798e-04 1.600335e-05
1.453200e+01 1.026864e-04 1.769750e-07 1.203839e-04 6.454613e-05
1.453600e+01 7.729554e-05 6.978474e-08 8.427401e-05 6.346567e-05
1.454000e+01 8.060267e-05 -5.685904e-08 7.491677e-05 -4.442076e-05
1.454400e+01 1.315518e-04 -3.379094e-08 1.281727e-04 -8.701476e-05
1.454800e+01 1.285328e-04 1.246958e-07 1.410024e-04 -5.901375e-05
1.455200e+01 1.051928e-04 1.997282e-07 1.251657e-04 -5.003669e-06
1.455600e+01 9.682712e-05 1.073356e-07 1.075607e-04 2.263695e-05
1.456000e+01 9.197016e-05 -3.953176e-08 8.801698e-05 5.979804e-06
1.456400e+01 1.198628e-04 -1.365945e-07 1.062033e-04 9.194229e-06
1.456800e+01 1.414196e-04 -1.384758e-07 1.275721e-04 8.686847e-07
1.457200e+01 1.240544e-04 -6.365662e-08 1.176887e-04 2.070335e-06
1.457600e+01 1.204618e-04 2.753713e-08 1.232155e-04 -1.397539e-05
1.458000e+01 1.138935e-04 1.001621e-07 1.239097e-04 -5.422347e-05
1.458400e+01 1.041541e-04 1.068532e-07 1.148394e-04 -3.885979e-05
1.458800e+01 1.005447e-04 3.871979e-08 1.044166e-04 -2.995870e-06
1.459200e+01 8.747383e-05 -7.203580e-08 8.027025e-05 7.119535e-06
1.459600e+01 3.565642e-05 -1.808553e-07 1.757088e-05 6.943919e-07
1.460000e+01 1.853762e-06 -2.194233e-07 -2.008857e-05 -8.086568e-06
1.460400e+01 -1.607309e-07 -1.551917e-07 -1.567990e-05 -6.452909e-06
1.460800e+01 -2.133809e-05 -7.592795e-08 -2.893089e-05 -1.883448e-05
1.461200e+01 -1.195125e-04 -2.420219e-08 -1.219328e-04 -4.066866e-06
1.461600e+01 -2.829083e-04 -5.565691e-08 -2.884740e-04 8.769182e-08
1.462000e+01 -3.894523e-04 -2.339385e-07 -4.128462e-04 -6.163166e-06
1.462400e+01 -3.166658e-04 -4.284813e-07 -3.595139e-04 1.402785e-05
1.462800e+01 -7.091722e-05 -3.786779e-07 -1.087850e-04 2.459757e-05
1.463200e+01 1.761772e-04 -3.148988e-08 1.730282e-04 -3.573180e-06
1.463600e+01 3.040851e-04 3.652725e-07 3.406123e-04 -2.163344e-05
1.464000e+01 2.971853e-04 5.634889e-07 3.535342e-04 2.468201e-05
1.464400e+01 3.227636e-04 4.129265e-07 3.640562e-04 8.909559e-05
1.464800e+01 3.415370e-04 7.438515e-08 3.489755e-04 4.593438e-05
1.465200e+01 3.341730e-04 -7.744547e-08 3.264285e-04 -3.797581e-05
1.465600e+01 3.056905e-04 9.549110e-08 3.152396e-04 -3.695944e-05
1.466000e+01 2.143965e-04 2.621176e-07 2.406082e-04 -9.181006e-07
1.466400e+01 1.522946e-04 1.979425e-07 1.720889e-04 1.602514e-05
1.466800e+01 1.080341e-04 9.534318e-08 1.175684e-04 -1.582510e-05
1.467200e+01 7.170219e-05 3.071896e-08 7.477409e-05 -2.466896e-05
1.467600e+01 6.802050e-05 -8.377510e-08 5.964299e-05 -2.632402e-06
1.468000e+01 5.753376e-05 -1.886299e-07 3.867078e-05 5.779792e-06
1.468400e+01 2.346880e-05 -1.742717e-07 6.041633e-06 3.574798e-06
1.468800e+01 -8.512235e-06 -4.696523e-08 -1.320876e-05 -4.678820e-06
1.469200e+01 -2.706967e-05 5.865064e-08 -2.120461e-05 1.216488e-05
1.469600e+01 -2.505818e-05 4.264381e-08 -2.079380e-05 2.034085e-05
1.470000e+01 3.072460e-06 -3.557724e-08 -4.852640e-07 -3.233840e-06
1.470400e+01 -1.162907e-05 -8.182145e-08 -1.981122e-05 -7.191150e-06
1.470800e+01 -5.888213e-05 -7.892145e-08 -6.677428e-05 -8.319249e-06
1.471200e+01 -2.450475e-05 -2.973751e-08 -2.747851e-05 1.626461e-06
1.471600e+01 -2.637341e-05 5.064489e-08 -2.130892e-05 -5.107848e-07
1.472000e+01 -4.152168e-05 3.862480e-08 -3.765920e-05 -1.295300e-06
1.472400e+01 -4.364586e-05 -6.009481e-08 -4.965534e-05 9.916572e-06
1.472800e+01 -6.300284e-05 -1.293824e-07 -7.594108e-05 1.061098e-05
1.473200e+01 -9.147349e-05 -9.952870e-08 -1.014264e-04 7.257203e-06
1.473600e+01 -6.582659e-05 -5.623216e-09 -6.638892e-05 1.497673e-05
1.474000e+01 -6.345753e-05 7.640275e-08 -5.581725e-05 1.548717e-05
1.474400e+01 -6.632359e-05 4.994194e-08 -6.132940e-05 1.716136e-05
1.474800e+01 -7.489780e-05 -3.596892e-08 -7.849470e-05 1.113826e-05
1.475200e+01 -9.031626e-05 -5.613442e-08 -9.592970e-05 5.259199e-06
1.475600e+01 -1.054074e-04 -1.740157e-08 -1.071476e-04 -9.604769e-07
1.476000e+01 -9.476641e-05 1.688813e-08 -9.307760e-05 3.348329e-06
1.476400e+01 -4.292729e-05 5.287626e-09 -4.239853e-05 2.236514e-05
1.476800e+01 -5.808897e-05 1.462368e-08 -5.662660e-05 2.116221e-05
1.477200e+01 -1.011465e-04 1.303981e-08 -9.984253e-05 1.674562e-05
1.477600e+01 -1.073927e-04 -1.362397e-09 -1.075289e-04 1.527236e-05
1.478000e+01 -1.055066e-04 1.938990e-08 -1.035676e-04 8.187887e-06
1.478400e+01 -9.696996e-05 3.165043e-08 -9.380492e-05 5.040192e-06
1.478800e+01 -1.307372e-04 1.077511e-08 -1.296597e-04 -1.273261e-05
1.479200e+01 -1.259553e-04 -2.327718e-08 -1.282830e-04 1.279936e-05
1.479600e+01 -9.950476e-05 -6.317928e-08 -1.058227e-04 3.104514e-05
1.480000e+01 -9.549463e-05 -9.908031e-08 -1.054027e-04 2.770798e-05
1.480400e+01 -1.055179e-04 -5.651665e-08 -1.111696e-04 1.333219e-05
1.480800e+01 -1.154708e-04 2.229656e-08 -1.132411e-04 -9.999540e-06
1.481200e+01 -1.303255e-04 7.472486e-08 -1.228530e-04 -4.171156e-05
1.481600e+01 -1.463741e-04 8.526873e-08 -1.378472e-04 -5.109754e-05
1.482000e+01 -1.248075e-04 5.302952e-08 -1.195046e-04 -4.943736e-05
1.482400e+01 -1.480595e-04 1.938748e-08 -1.461207e-04 -3.184248e-05
1.482800e+01 -1.493254e-04 -6.592679e-08 -1.559181e-04 -1.467646e-05
1.483200e+01 -1.418271e-04 -1.684046e-07 -1.586676e-04 1.206718e-05
1.483600e+01 -1.424200e-04 -1.584871e-07 -1.582687e-04 1.717856e-05
1.484000e+01 -1.478073e-04 -1.461426e-08 -1.492687e-04 2.000988e-06
1.484400e+01 -1.802213e-04 1.124411e-07 -1.689772e-04 -8.055074e-06
1.484800e+01 -2.055006e-04 7.032347e-08 -1.984683e-04 -1.092631e-05
1.485200e+01 -1.694165e-04 -1.050065e-07 -1.799171e-04 -2.603794e-06
1.485600e+01 -1.366034e-04 -2.478146e-07 -1.613848e-04 4.454300e-08
1.486000e+01 -1.443688e-04 -2.190417e-07 -1.662730e-04 1.037384e-05
1.486400e+01 -1.950491e-04 -3.325988e-08 -1.983751e-04 9.286183e-06
1.486800e+01 -2.472388e-04 8.498532e-08 -2.387402e-04 -5.789009e-06
1.487200e+01 -2.493060e-04 1.234097e-07 -2.369650e-04 -4.763867e-06
1.487600e+01 -2.374728e-04 1.394808e-07 -2.235247e-04 -1.065738e-07
1.488000e+01 -2.444777e-04 9.091773e-08 -2.353860e-04 -5.737714e-06
1.488400e+01 -2.377921e-04 -2.916573e-08 -2.407087e-04 -3.796224e-06
1.488800e+01 -2.211488e-04 -1.268569e-07 -2.338345e-04 -2.997454e-10
1.489200e+01 -2.255258e-04 -1.435051e-07 -2.398763e-04 -5.930545e-06
1.489600e+01 -2.319247e-04 -8.032612e-08 -2.399573e-04 -9.206403e-06
1.490000e+01 -2.406017e-04 -8.243641e-09 -2.414261e-04 -1.393106e-06
1.490400e+01 -2.395258e-04 1.349056e-08 -2.381768e-04 2.080437e-06
1.490800e+01 -2.485831e-04 -5.027439e-09 -2.490858e-04 -6.120558e-06
1.491200e+01 -2.115670e-04 -6.597236e-08 -2.181643e-04 3.623463e-06
1.491600e+01 -1.745561e-04 -1.367041e-07 -1.882265e-04 8.138725e-06
1.492000e+01 -1.634221e-04 -1.582274e-07 -1.792448e-04 2.190098e-06
1.492400e+01 -1.475221e-04 -1.191930e-07 -1.594414e-04 8.685772e-06
1.492800e+01 -1.250762e-04 -6.801108e-08 -1.318773e-04 1.423828e-05
1.493200e+01 -1.047429e-04 -4.782826e-08 -1.095258e-04 1.333525e-05
1.493600e+01 -9.335669e-05 -2.624611e-08 -9.598130e-05 1.304764e-05
1.494000e+01 -8.459497e-05 9.180128e-09 -8.367696e-05 5.948127e-06
1.494400e+01 -9.239472e-05 1.607667e-08 -9.078705e-05 8.143775e-07
1.494800e+01 -4.338936e-05 -5.369612e-08 -4.875897e-05 2.070703e-05
1.495200e+01 7.932498e-06 -1.419794e-07 -6.265438e-06 2.927882e-05
1.495600e+01 7.930025e-06 -1.749408e-07 -9.564057e-06 1.180180e-05
1.496000e+01 3.594747e-06 -1.075184e-07 -7.157097e-06 -1.192800e-05
1.496400e+01 1.647192e-05 1.168866e-08 1.764079e-05 7.082506e-07
1.496800e+01 1.996854e-05 5.472472e-08 2.544101e-05 1.742150e-06
1.497200e+01 2.481254e-05 2.512515e-08 2.732506e-05 -1.208587e-05
1.497600e+01 2.342734e-05 2.678435e-08 2.610577e-05 -1.108769e-05
1.498000e+01 4.835491e-05 3.256997e-08 5.161191e-05 3.378234e-06
1.498400e+01 4.979657e-05 2.350590e-08 5.214716e-05 -9.264099e-06
1.498800e+01 4.051022e-05 6.289517e-08 4.679973e-05 -1.177784e-05
1.499200e+01 1.873817e-05 1.332212e-07 3.206029e-05 -8.257971e-06
1.499600e+01 1.994704e-05 1.188726e-07 3.183431e-05 6.289801e-06
1.500000e+01 3.325688e-05 1.350570e-08 3.460745e-05 8.817702e-07
1.500400e+01 5.046367e-05 -3.126803e-08 4.733687e-05 -1.725214e-05
1.500800e+01 4.541609e-05 5.172411e-08 5.058850e-05 -4.601402e-07
1.501200e+01 3.066162e-05 1.430937e-07 4.497099e-05 1.398532e-05
1.501600e+01 3.893178e-05 1.256886e-07 5.150063e-05 1.708903e-06
1.502000e+01 6.719480e-05 4.210386e-08 7.140519e-05 -3.615387e-05
1.502400e+01 7.424703e-05 -1.040233e-08 7.320679e-05 -3.268531e-05
1.502800e+01 7.213504e-05 2.000580e-08 7.413562e-05 1.292639e-05
1.503200e+01 3.871928e-05 7.737292e-08 4.645657e-05 2.719432e-05
1.503600e+01 3.366424e-05 6.411875e-08 4.007611e-05 -1.052344e-05
1.504000e+01 6.309182e-05 1.726110e-08 6.481793e-05 -5.137406e-05
1.504400e+01 5.447700e-05 2.791327e-08 5.726833e-05 -1.549661e-05
1.504800e+01 5.616972e-05 1.380518e-08 5.755024e-05 1.773252e-05
1.505200e+01 4.419011e-05 -8.428770e-08 3.576134e-05 3.101090e-05
1.505600e+01 3.140514e-05 -1.733474e-07 1.407040e-05 3.086837e-05
1.506000e+01 5.936067e-05 -1.663165e-07 4.272902e-05 5.383929e-06
1.506400e+01 8.768069e-05 -8.546104e-08 7.913459e-05 -3.259909e-05
1.506800e+01 6.084878e-05 3.966928e-09 6.124548e-05 -3.158566e-05
1.507200e+01 6.211483e-05 1.850623e-08 6.396545e-05 1.126188e-05
1.507600e+01 6.583861e-05 -3.251128e-08 6.258748e-05 1.239138e-05
1.508000e+01 6.216920e-05 -6.707944e-08 5.546125e-05 -2.831629e-05
1.508400e+01 4.303676e-05 -2.885992e-08 4.015077e-05 -2.198503e-05
1.508800e+01 3.305999e-05 1.480211e-08 3.454020e-05 -5.965090e-06
1.509200e+01 5.340667e-05 -5.755201e-09 5.283115e-05 -9.105818e-06
1.509600e+01 6.458496e-05 -2.882315e-08 6.170265e-05 -7.709395e-06
1.510000e+01 5.180611e-05 -3.475279e-08 4.833083e-05 1.072044e-05
1.510400e+01 5.055151e-05 -6.058049e-08 4.449346e-05 1.540932e-05
1.510800e+01 3.761266e-05 -6.616667e-08 3.099599e-05 -5.973377e-06
1.511200e+01 1.549421e-05 1.190568e-08 1.668478e-05 -1.859802e-05
1.511600e+01 1.511113e-05 1.135455e-07 2.646568e-05 -6.815599e-06
1.512000e+01 9.060038e-06 1.178837e-07 2.084841e-05 1.059118e-05
1.512400e+01 1.941943e-05 3.114376e-08 2.253381e-05 1.358093e-05
1.512800e+01 1.919745e-05 -1.597888e-08 1.759957e-05 3.682754e-06
1.513200e+01 2.057483e-05 4.894939e-08 2.546977e-05 -7.183016e-07
1.513600e+01 3.822169e-06 1.373964e-07 1.756181e-05 -1.995437e-05
1.514000e+01 2.028945e-05 1.377326e-07 3.406272e-05 -2.273457e-05
1.514400e+01 3.263869e-05 6.497382e-08 3.913607e-05 -2.182006e-06
1.514800e+01 6.475079e-06 -2.036230e-08 4.438849e-06 -5.325002e-06
1.515200e+01 1.385221e-05 -9.792048e-08 4.060162e-06 -1.056373e-05
1.515600e+01 5.223218e-06 -1.434021e-07 -9.116988e-06 6.093566e-06
1.516000e+01 2.258654e-05 -1.440660e-07 8.179938e-06 2.102492e-05
1.516400e+01 3.239987e-05 -6.623729e-08 2.577614e-05 -1.665784e-05
1.516800e+01 1.188913e-06 7.953403e-08 9.142316e-06 -3.850827e-05
1.517200e+01 6.770471e-06 1.406033e-07 2.083080e-05 -1.880841e-05
1.517600e+01 2.763872e-05 5.275786e-08 3.291450e-05 2.275643e-06
1.518000e+01 4.538698e-05 -7.469902e-08 3.791708e-05 7.690123e-06
1.518400e+01 4.797807e-05 -1.372120e-07 3.425687e-05 -1.326159e-06
1.518800e+01 3.880503e-05 -1.060865e-07 2.819637e-05 8.340774e-07
1.519200e+01 2.674145e-05 -1.687119e-08 2.505433e-05 3.323804e-06
1.519600e+01 9.341574e-06 5.813877e-08 1.515545e-05 8.919602e-07
1.520000e+01 1.554699e-05 6.367108e-08 2.191410e-05 7.631347e-06
1.520400e+01 1.831293e-05 7.611154e-10 1.838905e-05 6.832029e-06
1.520800e+01 1.843943e-05 -6.253945e-08 1.218549e-05 5.801133e-07
1.521200e+01 2.695373e-05 -6.716332e-08 2.023740e-05 -2.673473e-06
1.521600e+01 4.414384e-05 1.631074e-09 4.430695e-05 -3.226545e-06
1.522000e+01 2.061266e-05 9.447358e-08 3.006002e-05 -1.530317e-05
1.522400e+01 1.006876e-06 1.035206e-07 1.135894e-05 -8.722624e-06
1.522800e+01 1.940002e-05 2.046516e-08 2.144653e-05 -1.827397e-08
1.523200e+01 2.742347e-05 -3.660011e-08 2.376346e-05 5.000938e-06
1.523600e+01 2.455754e-05 -2.512520e-09 2.430628e-05 7.800699e-06
1.524000e+01 9.469254e-06 3.460231e-08 1.292949e-05 9.862524e-06
1.524400e+01 1.353145e-05 1.973027e-08 1.550448e-05 1.640364e-05
1.524800e+01 1.428865e-05 2.631967e-09 1.455185e-05 5.459131e-06
1.525200e+01 3.156555e-05 3.409675e-09 3.190652e-05 3.265962e-06
1.525600e+01 2.433978e-05 -1.524313e-08 2.281547e-05 1.363525e-06
1.526000e+01 3.514752e-05 -5.422229e-08 2.972529e-05 1.259322e-05
1.526400e+01 2.432308e-05 -8.979185e-08 1.534390e-05 1.379902e-05
1.526800e+01 1.428455e-05 -1.159714e-07 2.687411e-06 7.696606e-06
1.527200e+01 1.910104e-05 -1.025071e-07 8.850328e-06 8.823987e-06
1.527600e+01 1.849362e-05 -3.881789e-08 1.461183e-05 9.654358e-07
1.528000e+01 1.808647e-05 4.135928e-08 2.222240e-05 -1.598520e-08
1.528400e+01 8.905556e-06 6.432152e-08 1.533771e-05 4.689712e-06
1.528800e+01 2.556943e-05 6.329051e-09 2.620233e-05 1.188909e-05
1.529200e+01 4.807961e-05 -8.221384e-08 3.985823e-05 1.266334e-05
1.529600e+01 4.233183e-05 -1.198832e-07 3.034350e-05 1.307136e-05
1.530000e+01 8.422952e-06 -7.682063e-08 7.408894e-07 1.665701e-05
1.530400e+01 9.154027e-06 6.052894e-09 9.759317e-06 2.143883e-05
1.530800e+01 5.998485e-06 6.385208e-08 1.238369e-05 1.055641e-05
1.531200e+01 -5.236793e-06 7.665491e-08 2.428698e-06 3.652373e-06
1.531600e+01 -1.346048e-05 8.223515e-08 -5.236961e-06 -6.652535e-06
1.532000e+01 6.670643e-06 7.513919e-08 1.418456e-05 7.308318e-07
1.532400e+01 1.563406e-05 6.208721e-08 2.184278e-05 9.396901e-06
1.532800e+01 1.483907e-05 6.498717e-08 2.133779e-05 1.705759e-05
1.533200e+01 -6.503905e-06 7.034982e-08 5.310775e-07 1.112788e-05
1.533600e+01 -1.529089e-05 6.380688e-08 -8.910197e-06 7.012547e-06
1.534000e+01 -1.192075e-05 8.039157e-08 -3.881593e-06 3.106838e-05
1.534400e+01 -1.775193e-05 1.044445e-07 -7.307482e-06 3.112351e-05
1.534800e+01 1.631719e-05 8.637084e-08 2.495428e-05 -1.110609e-05
1.535200e+01 3.687808e-05 6.527560e-08 4.340564e-05 -2.882243e-05
1.535600e+01 8.673873e-06 8.056458e-08 1.673033e-05 -1.817052e-05
1.536000e+01 8.528813e-06 1.209595e-07 2.062477e-05 -2.196850e-06
1.536400e+01 3.972274e-06 1.538788e-07 1.936016e-05 2.923737e-06
1.536800e+01 -1.073742e-05 1.334526e-07 2.607839e-06 -2.867483e-06
1.537200e+01 -2.121583e-05 6.807966e-08 -1.440787e-05 -1.337669e-05
1.537600e+01 -1.015463e-05 4.556610e-09 -9.698965e-06 -1.272545e-05
1.538000e+01 1.235395e-06 -2.382141e-08 -1.146746e-06 -7.881538e-06
1.538400e+01 2.180528e-05 -1.440161e-08 2.036512e-05 -1.811277e-06
1.538800e+01 -2.095930e-06 -1.067361e-08 -3.163291e-06 -2.425956e-06
1.539200e+01 -1.966319e-05 -4.059021e-08 -2.372221e-05 -7.365184e-06
1.539600e+01 -1.470579e-05 -5.457627e-08 -2.016341e-05 -6.721609e-06
1.540000e+01 -1.867777e-05 -3.562167e-08 -2.223994e-05 -8.351385e-06
1.540400e+01 -2.512161e-06 -1.949317e-08 -4.461478e-06 -4.466662e-06
1.540800e+01 3.818420e-06 -1.702345e-08 2.116075e-06 -7.067467e-08
1.541200e+01 8.564608e-06 -2.465207e-08 6.099401e-06 -1.174542e-06
1.541600e+01 -1.309289e-05 -1.940395e-08 -1.503329e-05 -4.701552e-06
1.542000e+01 -1.194507e-05 3.364657e-09 -1.160861e-05 -1.317947e-06
1.542400e+01 -2.520641e-07 1.761037e-08 1.508973e-06 8.141630e-06
1.542800e+01 -5.041622e-06 1.070159e-08 -3.971462e-06 9.276375e-06
1.543200e+01 -1.658418e-05 -2.102293e-09 -1.679441e-05 -7.070912e-06
1.543600e+01 -1.317451e-05 1.470413e-08 -1.170410e-05 -8.521419e-06
1.544000e+01 -1.038454e-05 3.048141e-08 -7.336399e-06 -5.623862e-06
1.544400e+01 -1.145980e-05 1.161916e-08 -1.029788e-05 -1.256950e-06
1.544800e+01 -1.895930e-05 -1.691745e-08 -2.065104e-05 5.370991e-06
1.545200e+01 -1.100793e-05 -3.431829e-08 -1.443976e-05 1.926173e-05
1.545600e+01 -9.135174e-06 -6.210208e-08 -1.534538e-05 2.376757e-05
1.546000e+01 -3.160272e-05 -8.778297e-08 -4.038102e-05 1.252292e-06
1.546400e+01 -3.492200e-05 -5.735358e-08 -4.065736e-05 -7.338218e-06
1.546800e+01 -1.697410e-05 9.470823e-09 -1.602702e-05 -1.845206e-05
1.547200e+01 -2.134174e-05 4.970149e-08 -1.637159e-05 -1.667325e-05
1.547600e+01 -2.202240e-05 2.983832e-08 -1.903857e-05 -4.424871e-06
1.548000e+01 -2.287404e-05 -3.571320e-08 -2.644536e-05 2.567275e-05
1.548400e+01 -5.069151e-05 -1.044400e-07 -6.113551e-05 4.351965e-05
1.548800e+01 -5.768294e-05 -1.369127e-07 -7.137420e-05 2.985310e-05
1.549200e+01 -2.501700e-05 -1.164034e-07 -3.665734e-05 -3.285041e-05
1.549600e+01 -4.346578e-05 -5.191665e-08 -4.865745e-05 -4.120064e-05
1.550000e+01 -6.747335e-05 1.809920e-08 -6.566343e-05 -1.986173e-05
1.550400e+01 -8.076826e-05 5.777211e-08 -7.499105e-05 -2.817858e-05
1.550800e+01 -7.238084e-05 5.951328e-08 -6.642951e-05 -3.029587e-05
1.551200e+01 -8.994274e-05 1.567660e-08 -8.837508e-05 -1.394172e-05
1.551600e+01 -1.085384e-04 -5.669234e-08 -1.142077e-04 -1.054825e-06
1.552000e+01 -1.325173e-04 -9.178389e-08 -1.416957e-04 1.851824e-05
1.552400e+01 -1.350350e-04 -7.622231e-08 -1.426572e-04 2.085623e-05
1.552800e+01 -1.035039e-04 -4.130123e-08 -1.076340e-04 -8.197187e-06
1.553200e+01 -9.175885e-05 6.462460e-09 -9.111260e-05 -4.489416e-05
1.553600e+01 -8.187749e-05 3.017688e-08 -7.885980e-05 -2.341193e-05
1.554000e+01 -5.708150e-05 -6.590929e-09 -5.774059e-05 -1.068063e-06
1.554400e+01 -5.118948e-05 -4.581908e-08 -5.577139e-05 -1.103983e-05
1.554800e+01 -5.334291e-05 -3.069482e-08 -5.641239e-05 1.365976e-07
1.555200e+01 -5.239900e-05 6.601162e-09 -5.173888e-05 1.047215e-05
1.555600e+01 -4.870723e-05 1.318538e-08 -4.738869e-05 8.834538e-06
1.556000e+01 -3.115067e-05 -6.944970e-09 -3.184516e-05 9.281953e-06
1.556400e+01 -3.133519e-05 -3.059703e-08 -3.439489e-05 8.117126e-07
1.556800e+01 -2.482496e-05 -4.920022e-08 -2.974499e-05 2.110498e-06
1.557200e+01 -6.977351e-06 -2.907947e-08 -9.885299e-06 1.867116e-05
1.557600e+01 -8.249775e-06 1.553535e-08 -6.696239e-06 1.675215e-05
1.558000e+01 -4.799250e-08 2.859590e-08 2.811597e-06 9.669840e-06
1.558400e+01 1.576460e-05 2.858882e-09 1.605049e-05 -8.163840e-06
1.558800e+01 -1.203516e-06 -3.516471e-08 -4.719987e-06 -4.403273e-06
1.559200e+01 1.042335e-05 -7.424896e-08 2.998458e-06 1.103471e-05
1.559600e+01 -3.454940e-06 -1.049043e-07 -1.394537e-05 6.348434e-06
1.560000e+01 2.924434e-07 -1.014689e-07 -9.854448e-06 -2.733846e-06
1.560400e+01 3.258980e-06 -5.495522e-08 -2.236542e-06 -2.464953e-06
1.560800e+01 -1.209416e-05 -1.383170e-08 -1.347733e-05 1.706117e-05
1.561200e+01 -1.960914e-05 -1.981160e-08 -2.159030e-05 2.981968e-05
1.561600e+01 -1.217662e-05 -5.991501e-08 -1.816812e-05 1.636174e-05
1.562000e+01 6.103110e-06 -7.270325e-08 -1.167215e-06 -1.776147e-06
1.562400e+01 -3.472223e-05 -3.001578e-08 -3.772381e-05 -8.342469e-07
1.562800e+01 -3.359826e-05 1.249328e-08 -3.234894e-05 -4.921956e-06
1.563200e+01 -2.551073e-05 1.437706e-08 -2.407302e-05 -1.641071e-05
1.563600e+01 -3.977437e-05 -8.607340e-09 -4.063511e-05 -2.217521e-05
1.564000e+01 -7.150240e-05 -1.743542e-08 -7.324594e-05 -9.545477e-06
1.564400e+01 -1.150663e-04 8.716260e-09 -1.141946e-04 2.649132e-06
1.564800e+01 -1.060224e-04 4.014757e-08 -1.020076e-04 5.827033e-06
1.565200e+01 -1.126168e-04 5.180745e-08 -1.074361e-04 -2.602442e-06
1.565600e+01 -2.244485e-04 5.417607e-08 -2.190309e-04 -4.351597e-06
1.566000e+01 -3.683859e-04 4.997356e-08 -3.633885e-04 -1.851209e-05
1.566400e+01 -4.869086e-04 3.746351e-08 -4.831622e-04 -2.419341e-05
1.566800e+01 -4.370269e-04 1.479920e-08 -4.355470e-04 -1.228655e-06
1.567200e+01 -1.482830e-04 -4.052817e-09 -1.486883e-04 1.860592e-05
1.567600e+01 7.891116e-05 8.843078e-09 7.979547e-05 1.250213e-05
1.568000e+01 1.648849e-04 5.284652e-08 1.701695e-04 5.611252e-06
1.568400e+01 1.922432e-04 8.624497e-08 2.008677e-04 6.041103e-06
1.568800e+01 2.288724e-04 8.201429e-08 2.370738e-04 2.683954e-05
1.569200e+01 2.445000e-04 5.857308e-08 2.503573e-04 1.808153e-05
1.569600e+01 2.109340e-04 4.977087e-08 2.159111e-04 -1.153101e-05
1.570000e+01 1.812642e-04 6.582630e-08 1.878469e-04 -1.941771e-05
1.570400e+01 1.288281e-04 7.269728e-08 1.360978e-04 -2.035205e-05
1.570800e+01 6.513175e-05 3.735032e-08 6.886678e-05 -8.112290e-06
1.571200e+01 6.259037e-06 -9.462990e-09 5.312738e-06 2.547611e-06
1.571600e+01 -4.563926e-05 -2.591972e-08 -4.823123e-05 7.366566e-06
1.572000e+01 -4.554787e-05 -2.638548e-08 -4.818642e-05 8.984196e-06
1.572400e+01 -4.505793e-05 -3.861224e-08 -4.891915e-05 3.398931e-06
1.572800e+01 -6.424516e-05 -4.701513e-08 -6.894668e-05 4.147035e-07
1.573200e+01 -1.058282e-04 -2.992577e-08 -1.088208e-04 -1.677548e-06
1.573600e+01 -1.254375e-04 -1.518375e-08 -1.269558e-04 -6.243242e-07
1.574000e+01 -1.155933e-04 -3.235906e-08 -1.188292e-04 1.367518e-06
1.574400e+01 -9.955422e-05 -5.997600e-08 -1.055518e-04 7.087528e-06
1.574800e+01 -1.164219e-04 -6.929787e-08 -1.233517e-04 1.269243e-05
1.575200e+01 -1.474740e-04 -5.586521e-08 -1.530606e-04 3.346034e-06
1.575600e+01 -1.434118e-04 -3.693105e-08 -1.471049e-04 -6.130927e-06
1.576000e+01 -1.184096e-04 -3.048951e-08 -1.214586e-04 -9.061315e-07
1.576400e+01 -1.158052e-04 -3.276131e-08 -1.190814e-04 2.423659e-06
1.576800e+01 -1.411282e-04 -2.144605e-08 -1.432728e-04 -1.863468e-06
1.577200e+01 -1.534198e-04 1.115587e-08 -1.523042e-04 2.480377e-06
1.577600e+01 -1.503171e-04 3.224415e-08 -1.470927e-04 5.151684e-06
1.578000e+01 -1.453909e-04 1.616520e-08 -1.437743e-04 7.782007e-06
1.578400e+01 -1.447925e-04 -1.316897e-08 -1.461094e-04 1.217989e-06
1.578800e+01 -1.401388e-04 -2.724514e-08 -1.428633e-04 4.830750e-06
1.579200e+01 -1.516588e-04 -1.345080e-08 -1.530039e-04 1.065381e-05
1.579600e+01 -1.640821e-04 3.788061e-09 -1.637033e-04 1.174503e-05
1.580000e+01 -1.540147e-04 1.743450e-08 -1.522713e-04 1.147600e-05
1.580400e+01 -1.612838e-04 3.472290e-08 -1.578115e-04 3.646658e-06
1.580800e+01 -1.537727e-04 3.969438e-08 -1.498033e-04 5.608146e-06
1.581200e+01 -1.592916e-04 2.676159e-08 -1.566154e-04 9.879486e-06
1.581600e+01 -1.740657e-04 9.775694e-09 -1.730881e-04 5.122316e-06
1.582000e+01 -1.632528e-04 -5.288535e-09 -1.637817e-04 7.938823e-06
1.582400e+01 -1.462217e-04 -9.097202e-09 -1.471314e-04 1.781079e-05
1.582800e+01 -1.618707e-04 -2.052054e-09 -1.620759e-04 1.722734e-05
1.583200e+01 -1.922337e-04 2.331901e-09 -1.920005e-04 9.638146e-06
1.583600e+01 -2.015833e-04 5.001118e-09 -2.010832e-04 -2.840271e-06
1.584000e+01 -1.912687e-04 2.699584e-08 -1.885691e-04 -2.733667e-05
1.584400e+01 -1.785742e-04 6.532559e-08 -1.720416e-04 -2.553700e-05
1.584800e+01 -1.919223e-04 8.333002e-08 -1.835893e-04 -1.084757e-05
1.585200e+01 -1.970135e-04 6.678186e-08 -1.903353e-04 9.115261e-07
1.585600e+01 -2.076674e-04 4.392704e-08 -2.032747e-04 5.979690e-06
1.586000e+01 -2.132840e-04 2.534694e-08 -2.107493e-04 6.585311e-06
1.586400e+01 -2.039805e-04 5.818131e-10 -2.039223e-04 -8.750644e-07
1.586800e+01 -1.907483e-04 -8.366100e-09 -1.915849e-04 -3.941837e-06
1.587200e+01 -2.055467e-04 9.572644e-09 -2.045894e-04 -2.550096e-06
1.587600e+01 -2.306904e-04 2.150463e-08 -2.285399e-04 1.648608e-06
1.588000e+01 -2.362572e-04 7.973003e-09 -2.354599e-04 2.882318e-06
1.588400e+01 -2.287300e-04 -6.287838e-09 -2.293588e-04 4.737376e-06
1.588800e+01 -2.345639e-04 -9.497782e-09 -2.355137e-04 9.892532e-06
1.589200e+01 -2.262384e-04 -2.378059e-08 -2.286165e-04 8.152760e-06
1.589600e+01 -2.203253e-04 -2.929374e-08 -2.232546e-04 -1.110585e-05
1.590000e+01 -2.408209e-04 8.898858e-09 -2.399310e-04 -2.975360e-05
1.590400e+01 -2.436043e-04 6.630491e-08 -2.369738e-04 -1.882640e-05
1.590800e+01 -2.542056e-04 8.512536e-08 -2.456931e-04 -3.446348e-06
1.591200e+01 -2.866039e-04 3.873366e-08 -2.827305e-04 -6.831554e-07
1.591600e+01 -2.798721e-04 -4.256812e-08 -2.841289e-04 8.580358e-07
1.592000e+01 -2.571882e-04 -9.385222e-08 -2.665734e-04 6.279523e-07
1.592400e+01 -2.584649e-04 -8.434767e-08 -2.668997e-04 -4.964461e-06
1.592800e+01 -2.686884e-04 -4.266609e-08 -2.729550e-04 -4.972392e-06
1.593200e+01 -2.820790e-04 -2.169066e-08 -2.842481e-04 4.552640e-06
1.593600e+01 -2.874112e-04 -3.925847e-08 -2.913370e-04 1.111339e-05
1.594000e+01 -2.747828e-04 -6.173163e-08 -2.809560e-04 1.137913e-05
1.594400e+01 -2.843288e-04 -5.860298e-08 -2.901891e-04 4.953213e-06
1.594800e+01 -2.723421e-04 -4.077413e-08 -2.764195e-04 1.263082e-06
1.595200e+01 -2.762147e-04 -2.366822e-08 -2.785815e-04 -7.357273e-06
1.595600e+01 -2.582717e-04 -3.641343e-09 -2.586358e-04 -1.511491e-05
1.596000e+01 -2.314632e-04 2.141917e-08 -2.293213e-04 -6.283675e-06
1.596400e+01 -2.387437e-04 2.730602e-08 -2.360131e-04 -7.247165e-07
1.596800e+01 -2.371526e-04 -3.718571e-12 -2.371529e-04 4.871963e-06
1.597200e+01 -2.073775e-04 -2.797279e-08 -2.101747e-04 1.100507e-05
1.597600e+01 -1.846171e-04 -3.627978e-08 -1.882450e-04 -1.384865e-06
1.598000e+01 -1.534272e-04 -2.240219e-08 -1.556674e-04 -2.719701e-05
1.598400e+01 -1.335225e-04 2.137299e-09 -1.333088e-04 -2.310248e-05
1.598800e+01 -1.316901e-04 6.197661e-09 -1.310703e-04 -3.657645e-06
1.599200e+01 -1.186877e-04 -1.485869e-08 -1.201736e-04 -1.866121e-06
1.599600e+01 -8.698862e-05 -2.153676e-08 -8.914230e-05 7.016599e-06
1.600000e+01 -6.057203e-05 -1.317366e-08 -6.188940e-05 8.880588e-06
1.600400e+01 -4.128260e-05 -5.847310e-09 -4.186733e-05 -3.645910e-05
1.600800e+01 -5.025294e-05 2.660643e-08 -4.759229e-05 -3.724383e-05
1.601200e+01 -5.357436e-05 5.932248e-08 -4.764211e-05 -1.044865e-05
1.601600e+01 -3.854361e-05 2.543566e-08 -3.600005e-05 -1.263480e-06
1.602000e+01 -2.184828e-05 -4.230056e-08 -2.607833e-05 -1.031371e-05
1.602400e+01 -3.192616e-06 -5.317145e-08 -8.509761e-06 -2.312659e-05
1.602800e+01 3.865942e-06 -6.254867e-09 3.240455e-06 -1.329256e-05
1.603200e+01 -1.463908e-05 2.546399e-08 -1.209268e-05 -6.734374e-06
1.603600e+01 -1.986097e-05 1.012008e-08 -1.884896e-05 2.062777e-06
1.604000e+01 -2.492243e-05 -1.643085e-08 -2.656552e-05 1.648434e-06
1.604400e+01 -1.003410e-05 -1.331569e-08 -1.136567e-05 4.735528e-06
1.604800e+01 8.881335e-06 6.224673e-09 9.503802e-06 8.851692e-06
1.605200e+01 -5.623300e-06 1.859700e-08 -3.763600e-06 7.564434e-06
1.605600e+01 -3.442688e-05 2.328570e-08 -3.209831e-05 9.330563e-06
1.606000e+01 -1.837934e-05 1.018383e-08 -1.736096e-05 2.884472e-05
1.606400e+01 -3.489526e-06 -2.606452e-08 -6.095979e-06 1.428663e-05
1.606800e+01 5.465677e-06 -4.871800e-08 5.938776e-07 1.137353e-07
1.607200e+01 -9.572976e-06 -4.063509e-08 -1.363648e-05 5.360161e-07
1.607600e+01 -1.797190e-05 -3.968665e-08 -2.194056e-05 2.316061e-06
1.608000e+01 -1.114340e-05 -6.064400e-08 -1.720780e-05 1.408339e-05
1.608400e+01 -3.993712e-06 -7.968978e-08 -1.196269e-05 1.802621e-05
1.608800e+01 -2.213963e-05 -8.040876e-08 -3.018050e-05 1.322670e-05
1.609200e+01 -1.784125e-05 -5.353040e-08 -2.319429e-05 6.169631e-06
1.609600e+01 -2.266496e-05 -1.013459e-08 -2.367841e-05 2.281399e-06
1.610000e+01 -5.865732e-05 3.003743e-09 -5.835695e-05 -4.665260e-06
1.610400e+01 -4.809814e-05 -3.019047e-08 -5.111719e-05 2.401354e-07
1.610800e+01 -2.994466e-05 -6.267207e-08 -3.621187e-05 1.086994e-05
1.611200e+01 -3.890456e-05 -6.076370e-08 -4.498093e-05 1.760263e-05
1.611600e+01 -3.845215e-05 -4.057444e-08 -4.250959e-05 3.883217e-05
1.612000e+01 -3.258249e-05 -2.239923e-08 -3.482241e-05 4.065684e-05
1.612400e+01 -2.527834e-05 -2.252165e-09 -2.550356e-05 7.269028e-06
1.612800e+01 -3.439684e-05 2.658259e-08 -3.173858e-05 1.994060e-07
1.613200e+01 -5.558492e-05 4.684795e-08 -5.090013e-05 2.115736e-07
1.613600e+01 -5.598632e-05 4.185576e-08 -5.180074e-05 -1.807626e-05
1.614000e+01 -4.278612e-05 3.241744e-08 -3.954437e-05 -1.579134e-05
1.614400e+01 -2.986912e-05 2.999045e-08 -2.687008e-05 -7.583579e-06
1.614800e+01 -4.533051e-05 3.006972e-08 -4.232354e-05 4.256064e-06
1.615200e+01 -6.270923e-05 3.738895e-08 -5.897033e-05 3.637331e-06
1.615600e+01 -6.637036e-05 5.314206e-08 -6.105615e-05 1.122983e-06
1.616000e+01 -6.042945e-05 7.034829e-08 -5.339463e-05 6.397088e-06
1.616400e+01 -5.074430e-05 7.819476e-08 -4.292483e-05 2.506618e-07
1.616800e+01 -6.432170e-05 8.876397e-08 -5.544531e-05 -1.507458e-06
1.617200e+01 -7.820965e-05 1.024571e-07 -6.796394e-05 5.891320e-07
1.617600e+01 -7.720221e-05 9.240520e-08 -6.796169e-05 9.395222e-06
1.618000e+01 -7.922973e-05 6.504020e-08 -7.272571e-05 1.532842e-06
1.618400e+01 -6.292438e-05 5.240106e-08 -5.768427e-05 -9.922041e-06
1.618800e+01 -6.099648e-05 6.274524e-08 -5.472196e-05 -1.477411e-05
1.619200e+01 -6.174077e-05 8.078880e-08 -5.366189e-05 -8.853788e-06
1.619600e+01 -6.781081e-05 9.273349e-08 -5.853746e-05 -2.758346e-06
1.620000e+01 -7.398417e-05 8.717442e-08 -6.526673e-05 4.492972e-06
1.620400e+01 -6.040795e-05 6.093841e-08 -5.431411e-05 4.011697e-06
1.620800e+01 -5.770695e-05 2.733336e-08 -5.497362e-05 -6.016057e-06
1.621200e+01 -6.294372e-05 1.178226e-09 -6.282590e-05 -1.119963e-05
1.621600e+01 -4.982015e-05 -1.096368e-08 -5.091652e-05 -7.588764e-06
1.622000e+01 -4.340001e-05 -1.128149e-08 -4.452816e-05 -4.346708e-07
1.622400e+01 -3.623113e-05 -9.324704e-09 -3.716360e-05 5.027716e-06
1.622800e+01 -2.993840e-05 -1.427988e-08 -3.136639e-05 9.122316e-06
1.623200e+01 -4.160838e-05 -1.659567e-08 -4.326794e-05 4.951925e-06
1.623600e+01 -5.157020e-05 -6.500400e-09 -5.222024e-05 -1.293590e-06
1.624000e+01 -5.382983e-05 1.167365e-08 -5.266247e-05 -5.758066e-06
1.624400e+01 -6.161734e-05 2.296553e-08 -5.932079e-05 -5.905214e-06
1.624800e+01 -5.254690e-05 1.517802e-08 -5.102910e-05 1.767178e-06
1.625200e+01 -3.345175e-05 -1.095221e-09 -3.356127e-05 1.256420e-05
1.625600e+01 -5.402118e-05 -1.924359e-08 -5.594554e-05 1.658251e-07
1.626000e+01 -4.274833e-05 -3.345509e-08 -4.609384e-05 -1.107597e-05
1.626400e+01 -4.309173e-05 -3.445675e-08 -4.653740e-05 -1.728165e-05
1.626800e+01 -4.158064e-05 -4.065339e-08 -4.564597e-05 -4.041473e-06
1.627200e+01 -3.487484e-05 -6.391470e-08 -4.126631e-05 5.475259e-06
1.627600e+01 -3.502585e-05 -6.565696e-08 -4.159155e-05 -6.466208e-07
1.628000e+01 -3.115240e-05 -2.363464e-08 -3.351587e-05 -1.081434e-05
1.628400e+01 -2.790184e-05 1.465109e-08 -2.643673e-05 -1.115534e-05
1.628800e+01 -3.668518e-05 1.056908e-08 -3.562827e-05 -8.263270e-06
1.629200e+01 -3.758513e-05 -1.250184e-08 -3.883531e-05 -9.964761e-06
1.629600e+01 -3.256281e-05 -1.912354e-08 -3.447517e-05 -1.946931e-05
1.630000e+01 -3.256061e-05 -1.631501e-08 -3.419211e-05 -1.151568e-05
1.630400e+01 -4.123751e-05 -2.849762e-08 -4.408727e-05 -3.582590e-06
1.630800e+01 -3.012168e-05 -4.547297e-08 -3.466897e-05 -1.553071e-07
1.631200e+01 -3.117765e-05 -3.919663e-08 -3.509731e-05 -3.110616e-06
1.631600e+01 -2.401008e-05 -1.820613e-08 -2.583069e-05 8.129157e-06
1.632000e+01 -3.172022e-05 -6.170343e-09 -3.233725e-05 -6.997691e-06
1.632400e+01 -5.369868e-05 -1.183809e-09 -5.381706e-05 -2.099152e-05
1.632800e+01 -5.039400e-05 7.536775e-09 -4.964032e-05 -5.533352e-06
1.633200e+01 -4.242629e-05 -8.309554e-10 -4.250938e-05 3.535720e-06
1.633600e+01 -3.554625e-05 -2.957626e-08 -3.850388e-05 1.237529e-06
1.634000e+01 -3.345405e-05 -3.940648e-08 -3.739470e-05 -1.020580e-06
1.634400e+01 -3.132555e-05 -2.673849e-08 -3.399940e-05 7.155388e-06
1.634800e+01 -1.757946e-05 -2.341898e-08 -1.992136e-05 1.561192e-05
1.635200e+01 -3.368325e-05 -3.940341e-08 -3.762359e-05 -1.273659e-06
1.635600e+01 -3.483594e-05 -5.170570e-08 -4.000651e-05 -9.754148e-07
1.636000e+01 -3.426126e-05 -3.914625e-08 -3.817588e-05 7.277627e-06
1.636400e+01 -2.483988e-05 -2.261803e-08 -2.710169e-05 8.624568e-06
1.636800e+01 -3.103992e-05 -2.209530e-08 -3.324945e-05 2.983684e-06
1.637200e+01 -2.519155e-05 -3.066770e-08 -2.825832e-05 -4.209655e-07
1.637600e+01 -2.456302e-05 -3.317025e-08 -2.788005e-05 2.495056e-06
1.638000e+01 -3.423171e-05 -3.033221e-08 -3.726493e-05 1.618566e-05
1.638400e+01 -3.500543e-05 -2.650966e-08 -3.765639e-05 1.167560e-05
1.638800e+01 -3.884458e-05 -9.905439e-09 -3.983512e-05 -7.434432e-07
1.639200e+01 -4.259404e-05 2.332204e-08 -4.026184e-05 -2.978616e-06
1.639600e+01 -2.965644e-05 3.929032e-08 -2.572741e-05 -7.637255e-06
1.640000e+01 -5.507852e-06 1.420803e-08 -4.087049e-06 -2.440636e-06
1.640400e+01 -2.337819e-05 -2.920099e-08 -2.629829e-05 -5.034821e-06
1.640800e+01 -4.153204e-05 -6.179275e-08 -4.771131e-05 -1.034396e-05
1.641200e+01 -3.066621e-05 -7.075263e-08 -3.774147e-05 -1.398670e-05
1.641600e+01 -2.714053e-05 -5.932402e-08 -3.307293e-05 -7.536201e-06
1.642000e+01 -2.963168e-05 -4.671361e-08 -3.430304e-05 7.280123e-06
1.642400e+01 -3.360953e-05 -4.990768e-08 -3.860030e-05 1.091246e-05
1.642800e+01 -3.600356e-05 -5.020613e-08 -4.102418e-05 -8.056468e-06
1.643200e+01 -3.070993e-05 -2.156249e-08 -3.286618e-05 -9.067236e-06
1.643600e+01 -3.625133e-05 1.288764e-08 -3.496257e-05 -1.000020e-05
1.644000e+01 -3.995045e-05 1.607345e-08 -3.834311e-05 -1.388056e-05
1.644400e+01 -5.438732e-05 1.471944e-09 -5.424012e-05 -4.490285e-06
1.644800e+01 -4.509590e-05 -1.265768e-08 -4.636167e-05 2.906181e-06
1.645200e+01 -3.931509e-05 -1.774528e-08 -4.108961e-05 7.334485e-06
1.645600e+01 -3.988909e-05 -1.383085e-08 -4.127218e-05 9.129473e-06
1.646000e+01 -4.493189e-05 -4.070206e-09 -4.533891e-05 6.296829e-06
1.646400e+01 -5.419603e-05 2.660227e-08 -5.153580e-05 1.824635e-06
1.646800e+01 -7.870295e-05 6.382880e-08 -7.232007e-05 2.271763e-06
1.647200e+01 -9.917550e-05 5.675708e-08 -9.349980e-05 3.413702e-06
1.647600e+01 -1.054691e-04 6.533020e-10 -1.054037e-04 6.644966e-06
1.648000e+01 -1.084553e-04 -3.678713e-08 -1.121340e-04 1.372047e-05
1.648400e+01 -1.046734e-04 -1.958264e-08 -1.066317e-04 1.927531e-05
1.648800e+01 -9.232085e-05 2.283761e-08 -9.003709e-05 1.944701e-05
1.649200e+01 -1.037947e-04 5.732985e-08 -9.806176e-05 -6.872049e-06
1.649600e+01 -1.069212e-04 8.819812e-08 -9.810139e-05 -1.931269e-05
1.650000e+01 -1.252294e-04 9.920532e-08 -1.153089e-04 -1.544432e-05
1.650400e+01 -1.320265e-04 7.163219e-08 -1.248632e-04 -1.369509e-05
1.650800e+01 -1.257017e-04 3.565775e-08 -1.221360e-04 -1.075455e-06
1.651200e+01 -1.120869e-04 1.267073e-08 -1.108199e-04 1.565257e-05
1.651600e+01 -9.587833e-05 1.069976e-08 -9.480835e-05 1.978635e-05
1.652000e+01 -8.528981e-05 3.427414e-08 -8.186240e-05 -5.187500e-06
1.652400e+01 -7.310181e-05 5.531662e-08 -6.757014e-05 -1.478053e-05
1.652800e+01 -6.865683e-05 4.474007e-08 -6.418282e-05 -5.084223e-06
1.653200e+01 -5.931391e-05 1.441411e-08 -5.787250e-05 -2.140242e-08
1.653600e+01 -6.091480e-05 2.125684e-09 -6.070223e-05 -1.648167e-06
1.654000e+01 -7.135964e-05 1.469607e-08 -6.989003e-05 4.845925e-07
1.654400e+01 -4.934679e-05 2.753779e-08 -4.659301e-05 6.935228e-06
1.654800e+01 -2.929555e-05 2.691261e-08 -2.660429e-05 9.204799e-06
1.655200e+01 -1.285212e-05 1.507494e-08 -1.134463e-05 -7.643330e-07
1.655600e+01 -5.647634e-06 6.328764e-09 -5.014758e-06 -8.931994e-06
1.656000e+01 5.881457e-06 8.367041e-10 5.965127e-06 7.009861e-07
1.656400e+01 4.656072e-06 -1.862677e-08 2.793395e-06 6.826333e-06
1.656800e+01 1.187193e-05 -3.655504e-08 8.216422e-06 1.822383e-05
1.657200e+01 3.009102e-05 -3.649049e-08 2.644197e-05 2.109921e-05
1.657600e+01 1.135781e-05 -3.043764e-08 8.314049e-06 2.073686e-06
1.658000e+01 1.417987e-05 -1.636747e-08 1.254312e-05 1.022761e-05
1.658400e+01 -1.590848e-05 -4.890263e-09 -1.639751e-05 2.430695e-05
1.658800e+01 -2.116350e-05 -1.328889e-08 -2.249238e-05 3.474366e-05
1.659200e+01 -1.370451e-06 -2.379423e-08 -3.749875e-06 1.546244e-05
1.659600e+01 -1.905570e-06 -1.695719e-08 -3.601290e-06 1.507431e-05
1.660000e+01 5.244167e-06 3.819699e-09 5.626137e-06 -3.952518e-06
1.660400e+01 2.425737e-05 3.781440e-08 2.803881e-05 -4.782823e-05
1.660800e+01 2.821973e-05 7.076857e-08 3.529658e-05 -3.601046e-05
1.661200e+01 1.127400e-05 5.733406e-08 1.700740e-05 -1.892263e-05
1.661600e+01 -7.166536e-06 1.250937e-10 -7.154027e-06 -1.284134e-05
1.662000e+01 -4.498180e-05 -3.553811e-08 -4.853561e-05 5.143875e-06
1.662400e+01 -8.207755e-05 -3.368632e-08 -8.544618e-05 1.174977e-05
1.662800e+01 -6.663699e-05 -2.540792e-08 -6.917778e-05 -1.759979e-06
1.663200e+01 -9.507729e-05 -3.299503e-09 -9.540724e-05 -2.427434e-05
1.663600e+01 -2.120804e-04 3.101178e-08 -2.089793e-04 -1.555706e-05
1.664000e+01 -3.434463e-04 3.037630e-08 -3.404087e-04 5.385051e-06
1.664400e+01 -4.446569e-04 -1.616391e-08 -4.462733e-04 2.354967e-05
1.664800e+01 -4.273049e-04 -5.579151e-08 -4.328841e-04 5.252464e-05
1.665200e+01 -1.751549e-04 -5.985846e-08 -1.811408e-04 4.723931e-05
1.665600e+01 9.972752e-05 -2.815096e-08 9.691242e-05 -2.870134e-06
1.666000e+01 2.224754e-04 3.629303e-08 2.261047e-04 -1.456629e-05
1.666400e+01 2.582066e-04 8.609700e-08 2.668163e-04 -4.475584e-05
1.666800e+01 3.046696e-04 8.718386e-08 3.133880e-04 -2.874373e-05
1.667200e+01 3.148868e-04 5.355491e-08 3.202423e-04 2.537972e-05
1.667600e+01 2.807673e-04 1.772205e-10 2.807851e-04 3.646384e-05
1.668000e+01 2.709084e-04 -3.003807e-08 2.679046e-04 -2.250555e-05
1.668400e+01 1.826147e-04 2.002510e-08 1.846173e-04 -6.612731e-05
1.668800e+01 9.810036e-05 9.141489e-08 1.072419e-04 3.110253e-05
1.669200e+01 3.213036e-05 3.817422e-08 3.594778e-05 1.206944e-04
1.669600e+01 7.522778e-06 -9.244078e-08 -1.721300e-06 3.581079e-05
1.670000e+01 -9.288258e-07 -8.642320e-08 -9.571146e-06 -7.060178e-05
1.670400e+01 -3.682457e-05 4.596800e-08 -3.222777e-05 1.303572e-05
1.670800e+01 -6.062612e-05 5.724140e-08 -5.490198e-05 7.201789e-06
1.671200e+01 -4.133285e-05 -2.622559e-08 -4.395541e-05 -8.100510e-05
1.671600e+01 -1.170459e-05 1.259720e-08 -1.044487e-05 -9.935879e-05
1.672000e+01 -3.812618e-05 1.014496e-07 -2.798122e-05 -4.121859e-05
1.672400e+01 -1.718403e-05 5.728012e-08 -1.145602e-05 -8.014644e-06
1.672800e+01 -1.480554e-05 -4.308846e-08 -1.911438e-05 -3.828708e-06
1.673200e+01 -5.757125e-05 -7.002595e-08 -6.457384e-05 -1.477264e-06
1.673600e+01 -8.123236e-05 -6.202761e-08 -8.743512e-05 1.325620e-05
1.674000e+01 -8.433389e-05 -8.802585e-08 -9.313648e-05 2.144429e-05
1.674400e+01 -6.136039e-05 -1.042799e-07 -7.178838e-05 3.916316e-05
1.674800e+01 -7.012568e-05 -6.181523e-08 -7.630720e-05 1.561008e-05
1.675200e+01 -6.491674e-05 -3.942388e-09 -6.531097e-05 -5.024465e-05
1.675600e+01 -7.124858e-05 2.790979e-08 -6.845760e-05 -4.748790e-05
1.676000e+01 -9.348252e-05 1.466660e-08 -9.201586e-05 4.636926e-06
1.676400e+01 -7.080783e-05 -2.485395e-08 -7.329322e-05 -2.390967e-05
1.676800e+01 -6.840341e-05 -6.701093e-09 -6.907352e-05 -3.475736e-05
1.677200e+01 -1.180471e-04 3.421899e-08 -1.146252e-04 9.110378e-06
1.677600e+01 -1.212925e-04 -1.981005e-08 -1.232735e-04 1.039564e-04
1.678000e+01 -6.555972e-05 -1.271811e-07 -7.827783e-05 1.285954e-04
1.678400e+01 -7.495386e-05 -1.469985e-07 -8.965371e-05 4.225163e-05
1.678800e+01 -5.011806e-05 -5.001839e-08 -5.511990e-05 -8.519770e-05
1.679200e+01 -4.577738e-05 7.242253e-08 -3.853513e-05 -8.548505e-05
1.679600e+01 -5.442082e-05 9.096575e-08 -4.532425e-05 -5.932723e-05
1.680000e+01 -3.468872e-05 1.589977e-08 -3.309874e-05 -1.968613e-05
1.680400e+01 -3.997826e-05 -5.649338e-08 -4.562760e-05 5.271418e-06
1.680800e+01 -5.145423e-05 -8.552820e-08 -6.000705e-05 2.827538e-05
1.681200e+01 -7.115657e-05 -6.550891e-08 -7.770746e-05 2.663886e-05
1.681600e+01 -9.343306e-05 -2.681672e-08 -9.611473e-05 6.615858e-06
1.682000e+01 -7.630533e-05 -1.798773e-08 -7.810410e-05 2.039464e-07
1.682400e+01 -6.695410e-05 -2.891836e-08 -6.984593e-05 1.724020e-06
1.682800e+01 -6.134957e-05 -2.549457e-08 -6.389902e-05 7.906333e-06
1.683200e+01 -7.619724e-05 -2.879568e-08 -7.907681e-05 -1.466986e-05
1.683600e+01 -8.838958e-05 -5.047912e-08 -9.343749e-05 -2.295952e-05
1.684000e+01 -1.118024e-04 -6.950096e-08 -1.187525e-04 -1.845826e-05
1.684400e+01 -1.168743e-04 -9.452735e-08 -1.263271e-04 -1.493839e-05
1.684800e+01 -1.093489e-04 -1.083862e-07 -1.201876e-04 7.433011e-06
1.685200e+01 -1.226854e-04 -5.944621e-08 -1.286300e-04 1.476948e-05
1.685600e+01 -1.377149e-04 2.921217e-08 -1.347936e-04 3.734038e-06
1.686000e+01 -1.152283e-04 7.555294e-08 -1.076730e-04 -2.051546e-07
1.686400e+01 -1.176674e-04 6.327213e-08 -1.113401e-04 -1.889832e-07
1.686800e+01 -1.229409e-04 3.940606e-08 -1.190003e-04 -4.301122e-06
1.687200e+01 -1.658296e-04 2.684601e-08 -1.631450e-04 1.453762e-05
1.687600e+01 -1.727644e-04 -2.112680e-08 -1.748771e-04 3.072415e-05
1.688000e+01 -1.797979e-04 -1.020810e-07 -1.900060e-04 2.904860e-05
1.688400e+01 -1.775789e-04 -1.428889e-07 -1.918678e-04 3.856533e-05
1.688800e+01 -2.123708e-04 -1.162285e-07 -2.239936e-04 5.503968e-05
1.689200e+01 -2.159112e-04 -6.192656e-08 -2.221038e-04 2.126603e-05
1.689600e+01 -2.036206e-04 1.006813e-08 -2.026138e-04 -1.625780e-05
1.690000e+01 -2.246807e-04 7.485539e-08 -2.171951e-04 8.132574e-05
1.690400e+01 -2.746693e-04 5.163387e-08 -2.695059e-04 1.053663e-04
1.690800e+01 -2.487778e-04 -1.747698e-08 -2.505255e-04 -1.310148e-05
1.691200e+01 -2.131808e-04 1.776632e-08 -2.114041e-04 -6.145582e-05
1.691600e+01 -2.733278e-04 7.580180e-08 -2.657477e-04 -5.833763e-06
1.692000e+01 -2.496009e-04 -8.676302e-10 -2.496877e-04 -5.065033e-05
1.692400e+01 -1.633740e-04 -6.093476e-08 -1.694675e-04 -1.181205e-04
1.692800e+01 -1.442924e-04 -4.323968e-09 -1.447248e-04 -4.959804e-05
1.693200e+01 -1.392112e-04 -1.368414e-08 -1.405796e-04 5.139023e-06
1.693600e+01 -1.297652e-04 -7.300189e-08 -1.370654e-04 -7.817937e-06
1.694000e+01 -1.437671e-04 -3.173376e-09 -1.440844e-04 -1.544266e-05
1.694400e+01 -1.561164e-04 1.050374e-07 -1.456127e-04 -1.793634e-05
1.694800e+01 -1.562304e-04 7.431928e-08 -1.487985e-04 1.408748e-05
1.695200e+01 -1.033467e-04 -4.753180e-08 -1.080998e-04 2.844819e-05
1.695600e+01 -6.263515e-05 -7.909252e-08 -7.054440e-05 4.407546e-06
1.696000e+01 -2.793988e-05 1.062614e-08 -2.687727e-05 -2.537467e-05
1.696400e+01 -3.279420e-05 8.472164e-08 -2.432203e-05 -2.203299e-05
1.696800e+01 1.399947e-06 6.976711e-08 8.376658e-06 2.710610e-06
1.697200e+01 -1.348820e-05 6.434691e-08 -7.053506e-06 8.381277e-06
1.697600e+01 -3.266057e-05 1.274680e-07 -1.991377e-05 6.566101e-05
1.698000e+01 -5.249277e-05 1.529655e-07 -3.719622e-05 7.250196e-05
1.698400e+01 4.454074e-05 8.155773e-08 5.269652e-05 -3.774458e-06
1.698800e+01 1.042612e-04 6.771721e-08 1.110329e-04 -5.199111e-05
1.699200e+01 7.907966e-05 1.389223e-07 9.297189e-05 -3.044854e-05
1.699600e+01 6.356046e-05 1.265551e-07 7.621597e-05 -1.974801e-05
1.700000e+01 8.776097e-05 2.442744e-08 9.020371e-05 1.004198e-05
1.700400e+01 7.315590e-05 -2.485625e-08 7.067027e-05 2.451257e-05
1.700800e+01 8.532842e-05 1.626821e-08 8.695524e-05 4.766269e-05
1.701200e+01 3.593314e-05 4.599347e-08 4.053248e-05 3.726176e-05
1.701600e+01 4.084970e-05 8.262645e-09 4.167596e-05 -5.987280e-06
1.702000e+01 1.062682e-04 1.451445e-08 1.077197e-04 -1.645472e-05
1.702400e+01 6.422779e-05 9.953248e-08 7.418104e-05 -4.443635e-05
1.702800e+01 3.967234e-05 1.127384e-07 5.094618e-05 5.800940e-06
1.703200e+01 8.195600e-05 -2.163250e-08 7.979275e-05 7.285275e-05
1.703600e+01 9.966258e-05 -1.549287e-07 8.416971e-05 3.136088e-05
1.704000e+01 1.460900e-04 -1.302468e-07 1.330653e-04 -3.496293e-05
1.704400e+01 1.032255e-04 -2.146295e-08 1.010792e-04 -2.849886e-05
1.704800e+01 8.454365e-05 -2.850141e-08 8.169351e-05 2.167945e-05
1.705200e+01 1.090705e-04 -1.092908e-07 9.814146e-05 4.999213e-05
1.705600e+01 1.306357e-04 -1.018880e-07 1.204469e-04 6.109598e-06
1.706000e+01 1.285985e-04 2.032344e-08 1.306308e-04 -9.212939e-06
1.706400e+01 8.821058e-05 1.298322e-07 1.011938e-04 3.139951e-05
1.706800e+01 5.807348e-05 1.066209e-07 6.873557e-05 2.281716e-05
1.707200e+01 4.792573e-05 3.085273e-08 5.101100e-05 -1.281915e-05
1.707600e+01 5.682705e-05 3.266475e-08 6.009353e-05 -4.161831e-05
1.708000e+01 6.856725e-05 7.833083e-08 7.640033e-05 -2.811970e-05
1.708400e+01 9.497314e-05 6.437944e-08 1.014111e-04 3.625949e-06
1.708800e+01 1.173945e-04 2.123517e-08 1.195180e-04 -2.520687e-05
1.709200e+01 7.277989e-05 6.849465e-08 7.962935e-05 -4.987210e-05
1.709600e+01 3.693621e-05 1.455759e-07 5.149379e-05 -1.401884e-05
1.710000e+01 4.186138e-05 7.663065e-08 4.952445e-05 -6.089844e-06
1.710400e+01 8.243674e-05 -6.223469e-08 7.621327e-05 -1.778414e-05
1.710800e+01 8.500955e-05 -7.496768e-08 7.751278e-05 -2.845482e-05
1.711200e+01 1.035229e-04 -2.165179e-09 1.033063e-04 -3.834759e-05
1.711600e+01 8.557292e-05 3.258915e-08 8.883184e-05 -1.988732e-05
1.712000e+01 5.867358e-05 -9.236420e-09 5.774994e-05 2.892839e-05
1.712400e+01 3.135861e-05 -8.101320e-08 2.325729e-05 6.393385e-05
1.712800e+01 2.317929e-05 -9.894570e-08 1.328472e-05 3.677606e-05
1.713200e+01 4.508986e-05 -3.871323e-08 4.121853e-05 -5.276031e-06
1.713600e+01 8.904987e-05 2.051969e-08 9.110184e-05 -1.537627e-05
1.714000e+01 5.172207e-05 2.785210e-08 5.450728e-05 1.446971e-05
1.714400e+01 5.269697e-05 1.221465e-08 5.391843e-05 8.915686e-06
