2.504000e+00 -1.632868e-02 0.000000e+00 -1.632868e-02 -2.758244e-02 -8.491888e-03 -1.434740e-03
2.508000e+00 -1.665739e-02 -6.211359e-06 -1.666360e-02 -4.668471e-03 -8.501793e-03 -1.433441e-03
2.512000e+00 -3.663111e-02 -7.569222e-06 -3.663868e-02 5.555101e-02 -8.471117e-03 -1.422094e-03
2.516000e+00 -3.410869e-02 -5.725659e-05 -3.416594e-02 4.675618e-02 -8.446115e-03 -1.412238e-03
2.520000e+00 -1.686023e-03 -1.233298e-04 -1.809352e-03 -3.109140e-03 -8.456308e-03 -1.430701e-03
2.524000e+00 -4.834676e-03 4.426291e-07 -4.834233e-03 -3.634426e-02 -8.472127e-03 -1.476522e-03
2.528000e+00 -3.261779e-02 9.189671e-05 -3.252590e-02 -3.238861e-02 -8.462270e-03 -1.494600e-03
2.532000e+00 -2.225302e-02 -4.993612e-05 -2.230296e-02 -2.208657e-02 -8.448231e-03 -1.476041e-03
2.536000e+00 1.892266e-02 -1.272607e-04 1.879540e-02 5.123752e-03 -8.426066e-03 -1.452145e-03
2.540000e+00 1.943713e-02 6.890332e-05 1.950603e-02 6.786986e-03 -8.441788e-03 -1.459020e-03
2.544000e+00 -3.280487e-02 2.101251e-04 -3.259475e-02 -5.625429e-02 -8.528815e-03 -1.507775e-03
2.548000e+00 -4.358638e-02 -6.451504e-05 -4.365089e-02 -6.409808e-03 -8.485542e-03 -1.474983e-03
2.552000e+00 3.196866e-02 -3.861125e-04 3.158255e-02 1.042132e-01 -8.353559e-03 -1.398342e-03
2.556000e+00 9.112422e-02 2.582501e-04 9.138247e-02 6.644823e-02 -8.382889e-03 -1.401131e-03
2.560000e+00 4.553325e-02 1.717108e-03 4.725036e-02 -1.875559e-04 -8.448712e-03 -1.436855e-03
2.564000e+00 -1.734543e-02 1.259602e-03 -1.608583e-02 4.308337e-03 -8.441884e-03 -1.456039e-03
2.568000e+00 5.791444e-03 -5.803117e-04 5.211132e-03 2.052129e-03 -8.420248e-03 -1.433922e-03
2.572000e+00 2.761739e-02 -7.950469e-04 2.682235e-02 -2.394382e-02 -8.446740e-03 -1.430124e-03
2.576000e+00 2.434052e-03 2.546512e-04 2.688703e-03 -1.817473e-02 -8.470877e-03 -1.469454e-03
2.580000e+00 -4.412597e-02 3.367687e-04 -4.378920e-02 9.964869e-04 -8.454577e-03 -1.465800e-03
2.584000e+00 -1.039317e-03 -9.033040e-04 -1.942621e-03 3.142953e-02 -8.388658e-03 -1.425893e-03
2.588000e+00 4.350460e-02 -8.674728e-04 4.263713e-02 2.116789e-02 -8.396015e-03 -1.423248e-03
2.592000e+00 1.656735e-02 5.909011e-04 1.715825e-02 -3.371826e-02 -8.446981e-03 -1.465752e-03
2.596000e+00 -4.717913e-02 8.467963e-04 -4.633233e-02 -7.689071e-02 -8.500880e-03 -1.503399e-03
2.600000e+00 -5.284633e-02 -1.114683e-03 -5.396101e-02 -5.066496e-02 -8.499389e-03 -1.489648e-03
2.604000e+00 -2.764316e-02 -2.425926e-03 -3.006908e-02 3.943074e-02 -8.437702e-03 -1.444644e-03
2.608000e+00 -2.532168e-02 -8.537770e-04 -2.617546e-02 5.124733e-02 -8.447029e-03 -1.432672e-03
2.612000e+00 -3.371253e-02 1.058904e-03 -3.265362e-02 -1.372038e-02 -8.486840e-03 -1.466810e-03
2.616000e+00 -3.676048e-02 3.160917e-04 -3.644438e-02 7.155421e-03 -8.454193e-03 -1.455174e-03
2.620000e+00 -1.878842e-02 -1.496715e-03 -2.028514e-02 2.877436e-02 -8.434095e-03 -1.448058e-03
2.624000e+00 -2.451087e-02 -6.578571e-04 -2.516872e-02 1.659872e-02 -8.452847e-03 -1.448587e-03
2.628000e+00 -4.814868e-02 1.270233e-03 -4.687844e-02 -5.023279e-03 -8.470540e-03 -1.442048e-03
2.632000e+00 -2.854172e-02 5.924282e-04 -2.794929e-02 -1.030440e-02 -8.473906e-03 -1.429258e-03
2.636000e+00 3.451783e-03 -1.093233e-03 2.358549e-03 2.299409e-02 -8.437702e-03 -1.419979e-03
2.640000e+00 -1.799683e-02 -5.035841e-04 -1.850041e-02 3.557514e-02 -8.432557e-03 -1.440653e-03
2.644000e+00 -6.175212e-02 7.830596e-04 -6.096907e-02 -8.962266e-03 -8.474386e-03 -1.451472e-03
2.648000e+00 -7.197764e-02 -3.286636e-04 -7.230631e-02 -4.289793e-02 -8.499389e-03 -1.450991e-03
2.652000e+00 -5.772143e-02 -2.622248e-03 -6.034367e-02 -1.452714e-02 -8.499052e-03 -1.433634e-03
2.656000e+00 -3.307207e-02 -2.520155e-03 -3.559223e-02 4.299288e-02 -8.442365e-03 -1.401852e-03
2.660000e+00 -2.334634e-02 4.141959e-04 -2.293215e-02 3.700410e-02 -8.428325e-03 -1.410651e-03
2.664000e+00 -3.652357e-02 2.094778e-03 -3.442879e-02 -3.195951e-02 -8.482656e-03 -1.443875e-03
2.668000e+00 -9.089067e-02 -2.329855e-04 -9.112365e-02 -6.629094e-02 -8.538767e-03 -1.481474e-03
2.672000e+00 -1.477929e-01 -4.542743e-03 -1.523357e-01 -4.289140e-02 -8.570020e-03 -1.496524e-03
2.676000e+00 -1.410122e-01 -6.325088e-03 -1.473373e-01 3.377158e-03 -8.514294e-03 -1.473349e-03
2.680000e+00 -5.618191e-02 -3.787915e-03 -5.996982e-02 5.455767e-02 -8.408612e-03 -1.425123e-03
2.684000e+00 2.196765e-02 1.063266e-03 2.303092e-02 3.072384e-02 -8.399861e-03 -1.411853e-03
2.688000e+00 -4.838023e-03 4.376471e-03 -4.615521e-04 -1.868236e-02 -8.472031e-03 -1.447962e-03
2.692000e+00 -7.931049e-02 2.377095e-03 -7.693339e-02 -8.219023e-03 -8.492754e-03 -1.461472e-03
2.696000e+00 -7.244379e-02 -2.545676e-03 -7.498946e-02 -3.474477e-03 -8.457991e-03 -1.450174e-03
2.700000e+00 -1.581706e-02 -3.481524e-03 -1.929858e-02 -3.422479e-02 -8.456164e-03 -1.462963e-03
2.704000e+00 -1.846823e-02 -3.778654e-04 -1.884610e-02 -2.136554e-02 -8.466502e-03 -1.473781e-03
2.708000e+00 -6.980546e-02 7.023499e-04 -6.910311e-02 1.937883e-02 -8.471117e-03 -1.461761e-03
2.712000e+00 -7.845327e-02 -1.267516e-03 -7.972079e-02 2.408163e-02 -8.475397e-03 -1.442384e-03
2.716000e+00 -4.688534e-02 -1.694409e-03 -4.857975e-02 2.081782e-02 -8.461260e-03 -1.415507e-03
2.720000e+00 -7.755414e-03 2.728032e-04 -7.482611e-03 2.769335e-02 -8.436258e-03 -1.403871e-03
2.724000e+00 -5.300875e-03 1.716981e-03 -3.583893e-03 3.905582e-03 -8.450875e-03 -1.432672e-03
2.728000e+00 -3.914226e-02 4.889132e-04 -3.865334e-02 -1.027720e-02 -8.466645e-03 -1.451183e-03
2.732000e+00 -6.743642e-02 -1.853629e-03 -6.929005e-02 -1.711655e-03 -8.471935e-03 -1.443490e-03
2.736000e+00 -5.000328e-02 -1.936310e-03 -5.193959e-02 1.631457e-02 -8.446644e-03 -1.435317e-03
2.740000e+00 -1.714418e-02 4.828460e-04 -1.666134e-02 4.341215e-02 -8.385629e-03 -1.414113e-03
2.744000e+00 -1.157824e-02 1.384211e-03 -1.019403e-02 -1.033761e-02 -8.428951e-03 -1.418488e-03
2.748000e+00 -4.657994e-05 -1.428173e-03 -1.474753e-03 -4.841347e-02 -8.457703e-03 -1.432576e-03
2.752000e+00 -1.801361e-02 -3.121528e-03 -2.113514e-02 -2.612756e-02 -8.448423e-03 -1.437047e-03
2.756000e+00 -4.383728e-02 -1.198029e-03 -4.503531e-02 -5.016866e-02 -8.498283e-03 -1.479647e-03
2.760000e+00 -1.037549e-01 4.915676e-04 -1.032633e-01 -3.967503e-02 -8.524871e-03 -1.503303e-03
2.764000e+00 -1.415860e-01 -3.119626e-03 -1.447056e-01 2.562234e-02 -8.494917e-03 -1.461280e-03
2.768000e+00 -7.843659e-02 -7.364144e-03 -8.580073e-02 2.458460e-02 -8.466357e-03 -1.437336e-03
2.772000e+00 -3.494988e-02 -4.129008e-03 -3.907889e-02 -2.180365e-02 -8.479050e-03 -1.472579e-03
2.776000e+00 -4.292119e-02 1.089847e-03 -4.183134e-02 -5.668399e-04 -8.449096e-03 -1.487821e-03
2.780000e+00 -6.622818e-02 7.160084e-04 -6.551217e-02 1.353899e-02 -8.446019e-03 -1.480561e-03
2.784000e+00 -5.994496e-02 -2.478566e-03 -6.242352e-02 -8.840295e-03 -8.476022e-03 -1.477580e-03
2.788000e+00 -5.234585e-02 -2.248899e-03 -5.459475e-02 7.245625e-03 -8.463713e-03 -1.449741e-03
2.792000e+00 -4.624345e-02 5.841682e-04 -4.565928e-02 -1.193939e-02 -8.488811e-03 -1.467675e-03
2.796000e+00 -7.167398e-02 1.420549e-03 -7.025343e-02 -4.623739e-02 -8.537325e-03 -1.523016e-03
2.800000e+00 -1.309321e-01 -2.686585e-03 -1.336186e-01 -8.504152e-03 -8.525738e-03 -1.530180e-03
2.804000e+00 -1.300027e-01 -7.742779e-03 -1.377455e-01 2.639452e-02 -8.500351e-03 -1.506717e-03
2.808000e+00 -7.760841e-02 -5.580969e-03 -8.318938e-02 4.120178e-02 -8.468954e-03 -1.464502e-03
2.812000e+00 -3.684022e-02 1.595794e-03 -3.524443e-02 5.867193e-02 -8.436115e-03 -1.434066e-03
2.816000e+00 -5.933296e-03 4.748464e-03 -1.184832e-03 4.645033e-02 -8.420632e-03 -1.440557e-03
2.820000e+00 -1.768604e-02 3.798066e-03 -1.388798e-02 -3.963829e-03 -8.451789e-03 -1.455655e-03
2.824000e+00 -4.241288e-02 2.284258e-03 -4.012863e-02 -2.640899e-02 -8.494196e-03 -1.453347e-03
2.828000e+00 -7.468241e-02 7.515288e-04 -7.393088e-02 -2.323528e-02 -8.530257e-03 -1.472098e-03
2.832000e+00 -1.223964e-01 -2.889615e-03 -1.252860e-01 -2.257456e-02 -8.551316e-03 -1.515804e-03
2.836000e+00 -1.481898e-01 -8.861437e-03 -1.570512e-01 -1.007640e-02 -8.528430e-03 -1.524940e-03
2.840000e+00 -1.303613e-01 -1.178567e-02 -1.421470e-01 -1.101159e-02 -8.513429e-03 -1.522007e-03
2.844000e+00 -1.107169e-01 -7.221848e-03 -1.179387e-01 -2.631892e-02 -8.520304e-03 -1.544557e-03
2.848000e+00 -1.058735e-01 -7.132080e-04 -1.065867e-01 1.466086e-02 -8.475108e-03 -1.507294e-03
2.852000e+00 -5.106613e-02 7.335177e-04 -5.033262e-02 2.456170e-02 -8.432797e-03 -1.487581e-03
2.856000e+00 -2.757694e-02 7.663594e-04 -2.681058e-02 -4.133319e-02 -8.493331e-03 -1.532921e-03
2.860000e+00 -7.435259e-02 5.052589e-04 -7.384733e-02 -4.936967e-02 -8.527757e-03 -1.537441e-03
2.864000e+00 -9.530910e-02 -3.128375e-03 -9.843747e-02 -2.323273e-03 -8.519150e-03 -1.523882e-03
2.868000e+00 -6.094875e-02 -5.789613e-03 -6.673837e-02 5.053819e-02 -8.481455e-03 -1.491235e-03
2.872000e+00 -5.399164e-02 -2.983109e-03 -5.697475e-02 6.643897e-02 -8.458856e-03 -1.471473e-03
2.876000e+00 -6.726342e-02 1.091933e-03 -6.617149e-02 2.180803e-02 -8.502225e-03 -1.492966e-03
2.880000e+00 -7.834029e-02 2.599076e-03 -7.574121e-02 -1.314848e-02 -8.510929e-03 -1.505851e-03
2.884000e+00 -7.515986e-02 1.099522e-03 -7.406034e-02 3.222170e-03 -8.489052e-03 -1.502294e-03
2.888000e+00 -5.281146e-02 -9.074447e-04 -5.371891e-02 2.484355e-02 -8.473088e-03 -1.488590e-03
2.892000e+00 -8.111328e-02 -5.756204e-05 -8.117085e-02 1.663936e-03 -8.508765e-03 -1.499841e-03
2.896000e+00 -1.105073e-01 -7.147303e-04 -1.112220e-01 -2.177059e-02 -8.547085e-03 -1.506717e-03
2.900000e+00 -8.598932e-02 -5.134474e-03 -9.112379e-02 -3.658713e-03 -8.502995e-03 -1.498062e-03
2.904000e+00 -6.305273e-02 -7.028018e-03 -7.008075e-02 -7.887507e-04 -8.491985e-03 -1.519410e-03
2.908000e+00 -9.777184e-02 -4.067799e-03 -1.018396e-01 -3.359978e-02 -8.543864e-03 -1.545182e-03
2.912000e+00 -1.432395e-01 -2.223650e-03 -1.454631e-01 -1.101111e-02 -8.551845e-03 -1.512583e-03
2.916000e+00 -9.151165e-02 -4.210956e-03 -9.572260e-02 4.148407e-02 -8.496792e-03 -1.461713e-03
2.920000e+00 -3.223907e-02 -2.085509e-03 -3.432457e-02 1.750579e-02 -8.478138e-03 -1.503832e-03
2.924000e+00 -9.627255e-02 3.539526e-03 -9.273302e-02 -5.102156e-02 -8.546460e-03 -1.583022e-03
2.928000e+00 -1.875722e-01 -2.138366e-04 -1.877861e-01 -7.919525e-02 -8.613245e-03 -1.588551e-03
2.932000e+00 -1.559958e-01 -1.365418e-02 -1.696500e-01 -1.033756e-02 -8.575261e-03 -1.527007e-03
2.936000e+00 -4.874542e-02 -1.767565e-02 -6.642107e-02 8.505566e-02 -8.463665e-03 -1.479791e-03
2.940000e+00 -2.668357e-02 -4.062847e-03 -3.074642e-02 6.735530e-02 -8.453472e-03 -1.495274e-03
2.944000e+00 -6.731808e-02 9.249700e-03 -5.806838e-02 -1.748893e-02 -8.504533e-03 -1.547826e-03
2.948000e+00 -1.010386e-01 7.404663e-03 -9.363395e-02 -4.046164e-02 -8.521747e-03 -1.550471e-03
2.952000e+00 -7.187823e-02 -9.077977e-04 -7.278603e-02 -2.421170e-02 -8.516602e-03 -1.526959e-03
2.956000e+00 -4.316048e-02 -1.922771e-03 -4.508325e-02 1.163784e-02 -8.499005e-03 -1.524266e-03
2.960000e+00 -8.104223e-02 1.631034e-03 -7.941119e-02 1.922451e-02 -8.513524e-03 -1.535277e-03
2.964000e+00 -1.050572e-01 -9.053290e-04 -1.059626e-01 -2.043153e-02 -8.543960e-03 -1.552538e-03
2.968000e+00 -1.087208e-01 -7.494857e-03 -1.162157e-01 -4.989711e-02 -8.579011e-03 -1.569655e-03
2.972000e+00 -1.214769e-01 -1.014056e-02 -1.316174e-01 -2.106139e-02 -8.594109e-03 -1.559029e-03
2.976000e+00 -1.534577e-01 -6.774797e-03 -1.602325e-01 9.018109e-03 -8.606561e-03 -1.561481e-03
2.980000e+00 -1.560045e-01 -3.701026e-03 -1.597056e-01 3.335503e-02 -8.572184e-03 -1.567636e-03
2.984000e+00 -1.135731e-01 -2.705871e-03 -1.162790e-01 6.052116e-02 -8.494484e-03 -1.529123e-03
2.988000e+00 -7.057783e-02 8.003311e-04 -6.977750e-02 1.744845e-02 -8.520978e-03 -1.524940e-03
2.992000e+00 -9.262339e-02 4.166858e-03 -8.845653e-02 -2.508146e-02 -8.590887e-03 -1.551336e-03
2.996000e+00 -1.649668e-01 -8.015676e-04 -1.657684e-01 -3.077279e-02 -8.629929e-03 -1.572876e-03
3.000000e+00 -1.821985e-01 -1.135789e-02 -1.935564e-01 -4.646568e-02 -8.662960e-03 -1.592397e-03
3.004000e+00 -1.536960e-01 -1.525429e-02 -1.689503e-01 1.674659e-02 -8.610408e-03 -1.546336e-03
3.008000e+00 -1.387491e-01 -8.889302e-03 -1.476384e-01 7.531655e-02 -8.573146e-03 -1.516429e-03
3.012000e+00 -1.478199e-01 2.822353e-04 -1.475377e-01 3.174179e-02 -8.613582e-03 -1.541047e-03
3.016000e+00 -1.827053e-01 3.296154e-03 -1.794091e-01 -3.079620e-03 -8.633776e-03 -1.534844e-03
3.020000e+00 -1.714949e-01 -2.048833e-03 -1.735438e-01 -3.015925e-03 -8.639737e-03 -1.533642e-03
3.024000e+00 -1.665381e-01 -6.039980e-03 -1.725781e-01 -1.451533e-02 -8.657095e-03 -1.568261e-03
3.028000e+00 -1.885828e-01 -7.019388e-03 -1.956022e-01 2.185680e-02 -8.617572e-03 -1.542393e-03
3.032000e+00 -1.612539e-01 -7.917326e-03 -1.691712e-01 1.286111e-02 -8.609639e-03 -1.529652e-03
3.036000e+00 -1.293315e-01 -4.772676e-03 -1.341042e-01 -3.133066e-02 -8.629400e-03 -1.579031e-03
3.040000e+00 -1.745292e-01 -4.348517e-04 -1.749640e-01 -1.512342e-02 -8.618389e-03 -1.589368e-03
3.044000e+00 -1.737410e-01 -3.159364e-03 -1.769004e-01 2.003354e-03 -8.602475e-03 -1.565616e-03
3.048000e+00 -1.327994e-01 -5.378087e-03 -1.381775e-01 -8.067593e-03 -8.614207e-03 -1.538066e-03
3.052000e+00 -1.166005e-01 -2.016854e-03 -1.186173e-01 4.590497e-03 -8.627621e-03 -1.492245e-03
3.056000e+00 -1.009911e-01 1.601806e-03 -9.938930e-02 8.114629e-04 -8.633631e-03 -1.519747e-03
3.060000e+00 -8.173986e-02 1.081453e-03 -8.065841e-02 1.657636e-02 -8.550787e-03 -1.603264e-03
3.064000e+00 -1.205218e-01 -2.206615e-03 -1.227284e-01 1.537084e-02 -8.517276e-03 -1.611774e-03
3.068000e+00 -9.763564e-02 -5.719707e-03 -1.033553e-01 -2.517178e-02 -8.536892e-03 -1.602062e-03
3.072000e+00 -6.753368e-02 -3.957018e-03 -7.149070e-02 -1.305125e-02 -8.524342e-03 -1.580762e-03
3.076000e+00 -3.284468e-02 7.378724e-04 -3.210681e-02 -3.600636e-02 -8.517612e-03 -1.575521e-03
3.080000e+00 9.949603e-03 4.149466e-03 1.409907e-02 -7.705639e-02 -8.544489e-03 -1.593695e-03
3.084000e+00 1.537757e-03 3.808086e-03 5.345842e-03 -2.712277e-02 -8.552615e-03 -1.572540e-03
3.088000e+00 -2.106492e-02 -2.647829e-04 -2.132970e-02 5.069721e-02 -8.534920e-03 -1.546095e-03
3.092000e+00 -2.097695e-02 -2.010969e-03 -2.298792e-02 6.481870e-02 -8.512227e-03 -1.564126e-03
3.096000e+00 -4.667245e-02 -2.643005e-04 -4.693675e-02 2.495532e-02 -8.527372e-03 -1.585089e-03
3.100000e+00 -4.204187e-02 -2.655247e-03 -4.469712e-02 1.209889e-02 -8.518285e-03 -1.572155e-03
3.104000e+00 7.779351e-03 -4.156775e-03 3.622576e-03 3.060203e-02 -8.467367e-03 -1.546528e-03
3.108000e+00 4.790517e-02 3.042235e-03 5.094741e-02 4.401557e-03 -8.463521e-03 -1.546768e-03
3.112000e+00 4.256917e-02 9.866298e-03 5.243547e-02 -2.403604e-02 -8.497178e-03 -1.554654e-03
3.116000e+00 5.355992e-03 7.059114e-03 1.241511e-02 -1.239985e-02 -8.520304e-03 -1.565472e-03
3.120000e+00 -2.088528e-02 4.453074e-04 -2.043997e-02 -1.048893e-02 -8.526651e-03 -1.591532e-03
3.124000e+00 -1.963194e-02 -2.562972e-03 -2.219491e-02 -7.038501e-03 -8.504678e-03 -1.583166e-03
3.128000e+00 1.719061e-02 -2.445567e-03 1.474504e-02 1.827883e-02 -8.471695e-03 -1.546384e-03
3.132000e+00 4.214315e-02 -9.576229e-04 4.118553e-02 3.183426e-02 -8.477127e-03 -1.522535e-03
3.136000e+00 -4.501557e-03 4.910428e-04 -4.010514e-03 -2.581071e-02 -8.563673e-03 -1.558837e-03
3.140000e+00 -8.782601e-02 -1.688359e-03 -8.951437e-02 -8.004205e-02 -8.660990e-03 -1.601196e-03
3.144000e+00 -1.279186e-01 -8.513038e-03 -1.364316e-01 -4.122127e-02 -8.667336e-03 -1.584127e-03
3.148000e+00 -1.024517e-01 -1.199307e-02 -1.144447e-01 3.953500e-02 -8.608197e-03 -1.565953e-03
3.152000e+00 -8.677416e-02 -5.599541e-03 -9.237370e-02 7.719575e-02 -8.559394e-03 -1.564029e-03
3.156000e+00 -1.636551e-01 2.485755e-03 -1.611693e-01 -1.335998e-03 -8.676424e-03 -1.561529e-03
3.160000e+00 -2.643824e-01 -2.606546e-03 -2.669889e-01 -9.691023e-02 -8.890048e-03 -1.558164e-03
3.164000e+00 -3.515734e-01 -2.033699e-02 -3.719104e-01 -7.642447e-02 -9.000250e-03 -1.569847e-03
3.168000e+00 -3.926981e-01 -3.564328e-02 -4.283414e-01 3.733020e-03 -8.975295e-03 -1.601533e-03
3.172000e+00 -3.341795e-01 -3.197622e-02 -3.661558e-01 1.037668e-01 -8.776673e-03 -1.633314e-03
3.176000e+00 -2.191404e-01 -1.011637e-02 -2.292568e-01 2.035437e-01 -8.492658e-03 -1.631103e-03
3.180000e+00 -5.457214e-02 1.305439e-02 -4.151775e-02 2.041493e-01 -8.268840e-03 -1.575280e-03
3.184000e+00 8.962128e-02 3.235744e-02 1.219787e-01 3.492539e-02 -8.248454e-03 -1.556337e-03
3.188000e+00 2.165295e-01 4.246473e-02 2.589943e-01 -1.328435e-01 -8.273841e-03 -1.594561e-03
3.192000e+00 3.240423e-01 4.185705e-02 3.658994e-01 -1.546260e-01 -8.204556e-03 -1.584608e-03
3.196000e+00 4.255765e-01 4.624553e-02 4.718221e-01 -1.120899e-01 -8.165899e-03 -1.529748e-03
3.200000e+00 4.133477e-01 6.548706e-02 4.788347e-01 -7.654429e-02 -8.242347e-03 -1.532921e-03
3.204000e+00 2.476520e-01 7.161832e-02 3.192703e-01 -1.108530e-02 -8.336394e-03 -1.555856e-03
3.208000e+00 1.168913e-01 2.843700e-02 1.453283e-01 -1.553272e-02 -8.426209e-03 -1.603312e-03
3.212000e+00 8.874300e-02 -2.926931e-02 5.947369e-02 -4.208874e-02 -8.492129e-03 -1.624035e-03
3.216000e+00 7.848485e-02 -5.009136e-02 2.839348e-02 -8.721469e-03 -8.499100e-03 -1.597254e-03
3.220000e+00 6.323673e-02 -3.344718e-02 2.978954e-02 1.068280e-02 -8.505976e-03 -1.600427e-03
3.224000e+00 3.784646e-02 -7.542529e-03 3.030393e-02 -6.686511e-03 -8.520256e-03 -1.616919e-03
3.228000e+00 -1.649876e-02 2.414952e-04 -1.625727e-02 -1.046728e-02 -8.578002e-03 -1.607783e-03
3.232000e+00 -7.024068e-02 -1.693107e-02 -8.717174e-02 1.610581e-03 -8.663634e-03 -1.624756e-03
3.236000e+00 -1.396154e-01 -3.948186e-02 -1.790973e-01 4.879683e-02 -8.690271e-03 -1.606293e-03
3.240000e+00 -1.014995e-01 -5.703988e-02 -1.585394e-01 8.860665e-02 -8.611755e-03 -1.565472e-03
3.244000e+00 -3.644279e-03 -5.077461e-02 -5.441889e-02 7.226258e-02 -8.546460e-03 -1.569030e-03
3.248000e+00 -1.180827e-02 -1.623548e-02 -2.804375e-02 2.647650e-02 -8.554346e-03 -1.597782e-03
3.252000e+00 -1.001682e-01 1.275407e-02 -8.741415e-02 -6.072577e-03 -8.598484e-03 -1.623650e-03
3.256000e+00 -1.450659e-01 1.038001e-02 -1.346859e-01 -4.003287e-02 -8.644354e-03 -1.648796e-03
3.260000e+00 -1.085869e-01 -4.678928e-03 -1.132658e-01 -4.451518e-03 -8.591705e-03 -1.615476e-03
3.264000e+00 -4.705698e-02 -6.092316e-03 -5.314930e-02 4.283236e-02 -8.535449e-03 -1.558644e-03
3.268000e+00 -3.069381e-02 1.646492e-02 -1.422889e-02 -2.007493e-03 -8.583915e-03 -1.563068e-03
3.272000e+00 -9.395378e-02 4.573029e-02 -4.822349e-02 -4.176223e-02 -8.637237e-03 -1.590618e-03
3.276000e+00 -1.375423e-01 4.208924e-02 -9.545306e-02 -2.860811e-02 -8.651133e-03 -1.609899e-03
3.280000e+00 -1.110418e-01 1.115872e-02 -9.988308e-02 2.665987e-02 -8.613678e-03 -1.595667e-03
3.284000e+00 -1.071196e-01 -1.205773e-02 -1.191773e-01 5.059848e-02 -8.605503e-03 -1.587637e-03
3.288000e+00 -1.184319e-01 -1.949100e-02 -1.379229e-01 7.759924e-03 -8.641421e-03 -1.600379e-03
3.292000e+00 -1.019791e-01 -2.324029e-02 -1.252194e-01 -2.792490e-02 -8.642526e-03 -1.582925e-03
3.296000e+00 -2.505016e-02 -3.279637e-02 -5.784653e-02 -1.401970e-02 -8.603004e-03 -1.566241e-03
3.300000e+00 5.204833e-03 -3.266839e-02 -2.746356e-02 2.623004e-03 -8.596032e-03 -1.582252e-03
3.304000e+00 -6.334614e-02 -1.585749e-02 -7.920363e-02 1.623876e-02 -8.617572e-03 -1.575569e-03
3.308000e+00 -1.136902e-01 -5.358270e-03 -1.190485e-01 4.127761e-03 -8.646565e-03 -1.580040e-03
3.312000e+00 -1.321553e-01 -7.024259e-03 -1.391795e-01 -4.115712e-02 -8.690944e-03 -1.625093e-03
3.316000e+00 -1.487980e-01 -1.001147e-02 -1.588095e-01 -5.150837e-02 -8.686761e-03 -1.649422e-03
3.320000e+00 -1.219070e-01 -1.229525e-02 -1.342022e-01 -1.166429e-02 -8.634209e-03 -1.622977e-03
3.324000e+00 -7.965656e-02 -8.157001e-03 -8.781356e-02 -1.396202e-02 -8.635891e-03 -1.626631e-03
3.328000e+00 -7.652541e-02 5.465054e-03 -7.106035e-02 3.124552e-02 -8.604398e-03 -1.599946e-03
3.332000e+00 -6.401300e-02 3.404887e-03 -6.060812e-02 7.642731e-02 -8.555404e-03 -1.558693e-03
3.336000e+00 -2.574444e-03 -1.216997e-02 -1.474441e-02 2.712573e-02 -8.564731e-03 -1.568020e-03
3.340000e+00 -1.664784e-02 -1.242276e-02 -2.907060e-02 -6.503908e-02 -8.641181e-03 -1.605956e-03
3.344000e+00 -7.208500e-02 -9.341148e-04 -7.301912e-02 -7.411525e-02 -8.693588e-03 -1.616053e-03
3.348000e+00 -1.074851e-01 8.915261e-03 -9.856988e-02 2.340502e-03 -8.686521e-03 -1.579608e-03
3.352000e+00 -1.124189e-01 1.310298e-02 -9.931596e-02 6.393366e-02 -8.648681e-03 -1.581675e-03
3.356000e+00 -1.435725e-01 8.017457e-03 -1.355550e-01 3.934466e-02 -8.662384e-03 -1.625718e-03
3.360000e+00 -1.414015e-01 -9.524168e-03 -1.509257e-01 -2.117083e-03 -8.655412e-03 -1.623217e-03
3.364000e+00 -8.825812e-02 -2.619568e-02 -1.144538e-01 -2.961108e-02 -8.656998e-03 -1.614418e-03
3.368000e+00 -5.980377e-02 -1.852974e-02 -7.833351e-02 -4.009779e-02 -8.679260e-03 -1.622833e-03
3.372000e+00 -1.118717e-01 6.896470e-03 -1.049752e-01 -1.907274e-02 -8.691425e-03 -1.614851e-03
3.376000e+00 -1.296774e-01 1.304640e-02 -1.166310e-01 7.013913e-03 -8.694454e-03 -1.606100e-03
3.380000e+00 -1.011848e-01 -3.372314e-03 -1.045571e-01 2.090358e-02 -8.674356e-03 -1.616726e-03
3.384000e+00 -1.194934e-01 -1.939119e-02 -1.388846e-01 -2.868913e-03 -8.706811e-03 -1.643652e-03
3.388000e+00 -1.635967e-01 -2.419522e-02 -1.877919e-01 -4.745757e-02 -8.784750e-03 -1.649133e-03
3.392000e+00 -1.780008e-01 -2.091646e-02 -1.989173e-01 -3.838858e-02 -8.795184e-03 -1.653701e-03
3.396000e+00 -1.636483e-01 -1.875454e-02 -1.824028e-01 2.291498e-02 -8.748545e-03 -1.647979e-03
3.400000e+00 -1.544148e-01 -2.412657e-02 -1.785414e-01 4.611262e-02 -8.741622e-03 -1.614659e-03
3.404000e+00 -1.391809e-01 -3.622818e-02 -1.754091e-01 4.100869e-02 -8.759026e-03 -1.603360e-03
3.408000e+00 -1.238434e-01 -4.423574e-02 -1.680792e-01 3.807516e-02 -8.748065e-03 -1.599850e-03
3.412000e+00 -1.126695e-01 -3.493576e-02 -1.476052e-01 -1.296864e-03 -8.746958e-03 -1.609466e-03
3.416000e+00 -1.324917e-01 -4.584952e-03 -1.370766e-01 -8.985040e-03 -8.768979e-03 -1.606341e-03
3.420000e+00 -2.097193e-01 1.737282e-02 -1.923464e-01 -5.796994e-03 -8.820763e-03 -1.633266e-03
3.424000e+00 -2.775868e-01 9.449600e-03 -2.681372e-01 -1.773478e-02 -8.858315e-03 -1.673029e-03
3.428000e+00 -2.718390e-01 -1.458599e-02 -2.864250e-01 -3.323491e-02 -8.855045e-03 -1.662163e-03
3.432000e+00 -1.998978e-01 -2.558654e-02 -2.254843e-01 -6.945263e-03 -8.827782e-03 -1.620381e-03
3.436000e+00 -1.521718e-01 -1.270443e-02 -1.648762e-01 6.664190e-02 -8.773788e-03 -1.575954e-03
3.440000e+00 -1.719770e-01 2.568885e-03 -1.694081e-01 6.060332e-02 -8.779028e-03 -1.584849e-03
3.444000e+00 -1.869277e-01 3.350646e-03 -1.835770e-01 -2.597873e-03 -8.812974e-03 -1.611966e-03
3.448000e+00 -1.587869e-01 -5.435215e-03 -1.642222e-01 -6.292191e-04 -8.765518e-03 -1.614707e-03
3.452000e+00 -1.513731e-01 -1.324576e-02 -1.646188e-01 -2.289401e-02 -8.788981e-03 -1.647066e-03
3.456000e+00 -1.757180e-01 -8.911839e-03 -1.846299e-01 -4.662079e-02 -8.825715e-03 -1.646392e-03
3.460000e+00 -1.749172e-01 -6.924176e-03 -1.818414e-01 -1.021298e-02 -8.792203e-03 -1.617640e-03
3.464000e+00 -9.757729e-02 -1.926121e-02 -1.168385e-01 3.143674e-02 -8.750613e-03 -1.581194e-03
3.468000e+00 -5.272747e-02 -2.649940e-02 -7.922687e-02 1.845721e-02 -8.737727e-03 -1.599129e-03
3.472000e+00 -8.853908e-02 -2.145571e-02 -1.099948e-01 -4.941523e-03 -8.749315e-03 -1.659470e-03
3.476000e+00 -1.353075e-01 -1.655892e-02 -1.518664e-01 -5.948089e-02 -8.775471e-03 -1.692935e-03
3.480000e+00 -1.272730e-01 -6.779360e-03 -1.340523e-01 -7.633303e-02 -8.778019e-03 -1.683944e-03
3.484000e+00 -5.063535e-02 1.060338e-02 -4.003196e-02 4.189088e-02 -8.664980e-03 -1.602014e-03
3.488000e+00 3.453802e-02 2.241046e-02 5.694848e-02 1.259479e-01 -8.553720e-03 -1.542633e-03
3.492000e+00 6.661117e-02 3.060333e-02 9.721451e-02 3.641744e-02 -8.585214e-03 -1.600715e-03
3.496000e+00 2.951870e-03 4.202044e-02 4.497231e-02 -8.672945e-02 -8.662432e-03 -1.682790e-03
3.500000e+00 -4.503149e-02 4.064102e-02 -4.390469e-03 -9.881947e-02 -8.685463e-03 -1.687213e-03
3.504000e+00 2.378827e-02 2.430871e-02 4.809698e-02 -1.247333e-02 -8.623774e-03 -1.626727e-03
3.508000e+00 7.426949e-02 1.470637e-02 8.897586e-02 4.156316e-02 -8.600744e-03 -1.603312e-03
3.512000e+00 7.260332e-02 1.122954e-02 8.383286e-02 3.636476e-02 -8.603773e-03 -1.628074e-03
3.516000e+00 8.859656e-02 1.505163e-03 9.010172e-02 4.936728e-02 -8.536507e-03 -1.607879e-03
3.520000e+00 1.720652e-01 -1.010734e-02 1.619579e-01 4.117685e-02 -8.487321e-03 -1.574367e-03
3.524000e+00 1.989816e-01 -4.397232e-04 1.985419e-01 -3.313241e-02 -8.546268e-03 -1.616919e-03
3.528000e+00 1.087622e-01 1.905510e-02 1.278173e-01 -5.910819e-02 -8.603293e-03 -1.652643e-03
3.532000e+00 6.910150e-02 1.173598e-02 8.083748e-02 -3.137818e-02 -8.598291e-03 -1.638507e-03
3.536000e+00 1.448940e-01 -5.045580e-03 1.398484e-01 2.981497e-02 -8.528574e-03 -1.594946e-03
3.540000e+00 1.640113e-01 -4.201711e-03 1.598096e-01 2.587991e-02 -8.533719e-03 -1.616246e-03
3.544000e+00 1.242640e-01 2.122386e-03 1.263864e-01 -9.583537e-03 -8.556942e-03 -1.658557e-03
3.548000e+00 1.016015e-01 -2.220525e-03 9.938093e-02 -2.496325e-02 -8.552422e-03 -1.640671e-03
3.552000e+00 1.528287e-01 -5.124448e-03 1.477042e-01 -2.484908e-02 -8.554442e-03 -1.619804e-03
3.556000e+00 1.237053e-01 1.550633e-02 1.392116e-01 -2.826080e-02 -8.602283e-03 -1.650095e-03
3.560000e+00 3.112718e-02 3.462587e-02 6.575305e-02 -7.595301e-03 -8.620794e-03 -1.664230e-03
3.564000e+00 2.457828e-02 2.578917e-02 5.036746e-02 1.127740e-02 -8.602090e-03 -1.633555e-03
3.568000e+00 9.746182e-02 1.281078e-02 1.102726e-01 2.805666e-02 -8.578146e-03 -1.597638e-03
3.572000e+00 1.274394e-01 1.357307e-02 1.410125e-01 6.282155e-02 -8.553336e-03 -1.574415e-03
3.576000e+00 1.360294e-01 7.039549e-03 1.430689e-01 8.293626e-02 -8.520785e-03 -1.557010e-03
3.580000e+00 1.718369e-01 -1.126121e-02 1.605757e-01 3.598259e-02 -8.504197e-03 -1.593119e-03
3.584000e+00 1.542551e-01 -1.300491e-02 1.412502e-01 -2.484870e-02 -8.538383e-03 -1.624419e-03
3.588000e+00 8.267031e-02 -8.143062e-04 8.185600e-02 -9.149239e-02 -8.622381e-03 -1.667404e-03
3.592000e+00 4.149272e-02 1.020410e-02 5.169682e-02 -6.133709e-02 -8.626756e-03 -1.654326e-03
3.596000e+00 7.941971e-02 5.687116e-03 8.510682e-02 -4.079120e-03 -8.564251e-03 -1.625910e-03
3.600000e+00 1.485507e-01 -6.200688e-04 1.479306e-01 3.580337e-02 -8.513140e-03 -1.613553e-03
3.604000e+00 1.193507e-01 3.151156e-03 1.225019e-01 1.089344e-02 -8.557038e-03 -1.623698e-03
3.608000e+00 6.794465e-02 9.739572e-03 7.768422e-02 -1.353034e-02 -8.598484e-03 -1.627497e-03
3.612000e+00 5.822834e-02 7.927731e-03 6.615607e-02 -3.700992e-02 -8.619207e-03 -1.635815e-03
3.616000e+00 8.983071e-02 5.710894e-03 9.554160e-02 -2.445719e-02 -8.599157e-03 -1.640815e-03
3.620000e+00 9.990109e-02 7.892200e-03 1.077933e-01 3.385622e-02 -8.546653e-03 -1.631920e-03
3.624000e+00 7.041874e-02 3.818128e-03 7.423686e-02 3.276894e-02 -8.581030e-03 -1.622736e-03
3.628000e+00 4.580180e-02 -9.105373e-03 3.669643e-02 -2.751950e-02 -8.657047e-03 -1.640575e-03
3.632000e+00 3.515691e-02 -1.961114e-02 1.554577e-02 -1.637661e-02 -8.658634e-03 -1.637017e-03
3.636000e+00 6.637063e-02 -1.828961e-02 4.808102e-02 2.879085e-02 -8.599830e-03 -1.614130e-03
3.640000e+00 7.973431e-02 1.757564e-04 7.991007e-02 1.797138e-02 -8.587955e-03 -1.637497e-03
3.644000e+00 4.957968e-02 1.866738e-02 6.824706e-02 2.686577e-02 -8.583291e-03 -1.615621e-03
3.648000e+00 7.750773e-02 1.160029e-02 8.910802e-02 5.397637e-02 -8.538526e-03 -1.571097e-03
3.652000e+00 1.350104e-01 -5.283586e-03 1.297269e-01 2.373646e-02 -8.544153e-03 -1.598648e-03
3.656000e+00 7.550726e-02 -4.530048e-03 7.097721e-02 -6.371140e-02 -8.635891e-03 -1.660769e-03
3.660000e+00 2.860756e-02 6.731039e-03 3.533860e-02 -2.526792e-02 -8.601321e-03 -1.619178e-03
3.664000e+00 1.074409e-01 9.344561e-03 1.167854e-01 4.550926e-02 -8.510400e-03 -1.551913e-03
3.668000e+00 1.776782e-01 2.068665e-02 1.983649e-01 4.255117e-02 -8.508043e-03 -1.533113e-03
3.672000e+00 9.793015e-02 3.753732e-02 1.354675e-01 -1.473848e-03 -8.584685e-03 -1.579512e-03
3.676000e+00 2.989763e-03 2.805311e-02 3.104287e-02 -3.105365e-02 -8.632333e-03 -1.638651e-03
3.680000e+00 -2.470022e-05 -2.472865e-03 -2.497565e-03 -4.956199e-02 -8.626468e-03 -1.633122e-03
3.684000e+00 7.227042e-02 -1.827378e-02 5.399664e-02 -3.844896e-02 -8.599301e-03 -1.617544e-03
3.688000e+00 7.687477e-02 -7.573106e-03 6.930167e-02 -1.182736e-04 -8.605120e-03 -1.607927e-03
3.692000e+00 2.966825e-02 6.545400e-03 3.621365e-02 1.666664e-02 -8.609158e-03 -1.603119e-03
3.696000e+00 3.272834e-02 6.393719e-03 3.912206e-02 1.043399e-02 -8.593244e-03 -1.606774e-03
3.700000e+00 9.169940e-02 -4.362538e-03 8.733686e-02 5.152652e-03 -8.550740e-03 -1.608408e-03
3.704000e+00 1.007724e-01 -1.183940e-02 8.893297e-02 -1.484353e-02 -8.573289e-03 -1.617159e-03
3.708000e+00 8.801775e-02 -9.238731e-03 7.877902e-02 -9.286674e-03 -8.584685e-03 -1.609322e-03
3.712000e+00 6.409172e-02 -2.600287e-03 6.149143e-02 -1.925488e-02 -8.592858e-03 -1.635334e-03
3.716000e+00 7.680954e-02 2.737004e-03 7.954654e-02 -9.736941e-04 -8.560692e-03 -1.623554e-03
3.720000e+00 1.026838e-01 2.958856e-03 1.056427e-01 1.795885e-02 -8.527612e-03 -1.599706e-03
3.724000e+00 1.174963e-01 3.361803e-03 1.208581e-01 1.598610e-02 -8.543816e-03 -1.604033e-03
3.728000e+00 7.323849e-02 5.877891e-03 7.911638e-02 -2.402039e-02 -8.600503e-03 -1.616342e-03
3.732000e+00 4.765148e-02 5.062118e-03 5.271360e-02 -3.456446e-02 -8.621466e-03 -1.628602e-03
3.736000e+00 5.609248e-02 8.263037e-04 5.691878e-02 -8.055998e-03 -8.602475e-03 -1.634613e-03
3.740000e+00 4.637775e-02 -1.840338e-03 4.453742e-02 9.798240e-03 -8.601561e-03 -1.628458e-03
3.744000e+00 7.345890e-02 -1.199725e-04 7.333892e-02 6.974022e-02 -8.532180e-03 -1.576002e-03
3.748000e+00 1.299219e-01 7.980658e-03 1.379026e-01 8.861254e-02 -8.462847e-03 -1.550326e-03
3.752000e+00 1.337077e-01 2.666921e-02 1.603769e-01 -6.271888e-03 -8.515737e-03 -1.603889e-03
3.756000e+00 7.130144e-02 3.594704e-02 1.072485e-01 -5.786047e-02 -8.568241e-03 -1.626054e-03
3.760000e+00 6.351435e-02 9.451539e-03 7.296589e-02 -3.569197e-02 -8.570405e-03 -1.614995e-03
3.764000e+00 1.173470e-01 -2.151470e-02 9.583228e-02 -2.083433e-02 -8.568626e-03 -1.606197e-03
3.768000e+00 1.194194e-01 -1.420672e-02 1.052127e-01 -3.321313e-03 -8.551798e-03 -1.606822e-03
3.772000e+00 5.554671e-02 9.292204e-03 6.483892e-02 -1.168028e-02 -8.593291e-03 -1.634853e-03
3.776000e+00 4.134043e-03 1.673087e-02 2.086491e-02 -3.495482e-02 -8.625505e-03 -1.669712e-03
3.780000e+00 -8.182567e-03 9.171994e-03 9.894269e-04 2.818342e-03 -8.589685e-03 -1.646248e-03
3.784000e+00 7.712519e-02 -5.615775e-03 7.150941e-02 5.401578e-02 -8.516987e-03 -1.583166e-03
3.788000e+00 1.646019e-01 -1.279362e-02 1.518082e-01 4.833860e-02 -8.487417e-03 -1.565280e-03
3.792000e+00 1.775444e-01 -7.275346e-03 1.702690e-01 1.714079e-02 -8.493475e-03 -1.588166e-03
3.796000e+00 1.272454e-01 6.290882e-05 1.273083e-01 -2.297716e-02 -8.539537e-03 -1.603023e-03
3.800000e+00 8.979188e-02 4.298464e-03 9.409034e-02 -1.655963e-02 -8.576126e-03 -1.576386e-03
3.804000e+00 7.484042e-02 4.349674e-03 7.919010e-02 1.443191e-02 -8.578819e-03 -1.573165e-03
3.808000e+00 6.831017e-02 7.846443e-04 6.909481e-02 2.651201e-02 -8.557663e-03 -1.585666e-03
3.812000e+00 6.197539e-02 -2.912223e-03 5.906316e-02 -1.920473e-02 -8.570405e-03 -1.610091e-03
3.816000e+00 6.235916e-02 -1.047785e-03 6.131137e-02 -2.839883e-02 -8.571221e-03 -1.633266e-03
3.820000e+00 3.981933e-02 1.440124e-03 4.125946e-02 -7.052046e-04 -8.548192e-03 -1.646392e-03
3.824000e+00 3.255823e-02 -1.368863e-04 3.242134e-02 7.135875e-04 -8.543575e-03 -1.624131e-03
3.828000e+00 8.096473e-02 -1.666541e-03 7.929819e-02 -1.841818e-02 -8.536748e-03 -1.599513e-03
3.832000e+00 9.614258e-02 7.587382e-03 1.037300e-01 -3.502669e-02 -8.568386e-03 -1.604610e-03
3.836000e+00 7.340783e-02 2.706807e-02 1.004759e-01 -1.525914e-02 -8.565549e-03 -1.606677e-03
3.840000e+00 6.159632e-02 3.495184e-02 9.654816e-02 3.244381e-02 -8.515737e-03 -1.603552e-03
3.844000e+00 7.526788e-02 1.440204e-02 8.966993e-02 1.794381e-02 -8.530161e-03 -1.623265e-03
3.848000e+00 4.577328e-02 -1.363170e-02 3.214158e-02 -3.654505e-02 -8.611034e-03 -1.647306e-03
3.852000e+00 2.423130e-02 -2.297790e-02 1.253403e-03 -4.203826e-03 -8.600359e-03 -1.625189e-03
3.856000e+00 6.764568e-02 -1.337102e-02 5.427467e-02 3.810958e-02 -8.522804e-03 -1.603985e-03
3.860000e+00 1.257638e-01 7.322760e-03 1.330865e-01 4.116793e-02 -8.472319e-03 -1.576194e-03
3.864000e+00 1.410815e-01 1.663636e-02 1.577179e-01 2.766794e-02 -8.484724e-03 -1.552105e-03
3.868000e+00 1.142437e-01 1.784392e-03 1.160281e-01 -6.443494e-03 -8.561894e-03 -1.577781e-03
3.872000e+00 6.838878e-02 -1.834176e-02 5.004702e-02 -3.004177e-02 -8.597762e-03 -1.622304e-03
3.876000e+00 4.233424e-02 -2.130738e-02 2.102685e-02 -1.228862e-02 -8.560067e-03 -1.635430e-03
3.880000e+00 6.733013e-02 -1.869342e-03 6.546079e-02 2.400018e-02 -8.499389e-03 -1.593311e-03
3.884000e+00 8.348904e-02 2.761095e-02 1.111000e-01 2.033450e-02 -8.495158e-03 -1.569078e-03
3.888000e+00 7.034745e-02 4.242669e-02 1.127741e-01 1.136150e-04 -8.523670e-03 -1.584079e-03
3.892000e+00 1.572099e-02 2.728500e-02 4.300599e-02 -5.498116e-02 -8.608053e-03 -1.621967e-03
3.896000e+00 9.237744e-03 -9.336239e-04 8.304120e-03 -3.666215e-02 -8.616467e-03 -1.606677e-03
3.900000e+00 7.217150e-02 -1.973757e-02 5.243393e-02 5.168781e-02 -8.517130e-03 -1.554125e-03
3.904000e+00 1.421706e-01 -1.420434e-02 1.279662e-01 5.450998e-02 -8.464241e-03 -1.570232e-03
3.908000e+00 9.153938e-02 1.182137e-02 1.033607e-01 -1.878753e-02 -8.525113e-03 -1.614370e-03
3.912000e+00 -9.647266e-03 2.157834e-02 1.193107e-02 -5.153573e-02 -8.602379e-03 -1.630766e-03
3.916000e+00 -2.514543e-02 5.446337e-04 -2.460079e-02 -3.006814e-02 -8.614158e-03 -1.621631e-03
3.920000e+00 4.092766e-02 -1.961226e-02 2.131540e-02 -4.743241e-03 -8.556942e-03 -1.604850e-03
3.924000e+00 9.105961e-02 -1.484426e-02 7.621535e-02 -4.734169e-03 -8.530545e-03 -1.607735e-03
3.928000e+00 8.721084e-02 1.139134e-03 8.834997e-02 1.430310e-02 -8.525641e-03 -1.596196e-03
3.932000e+00 4.329601e-02 4.512999e-03 4.780900e-02 1.503429e-02 -8.552470e-03 -1.605908e-03
3.936000e+00 5.946011e-02 -3.733045e-03 5.572706e-02 3.410345e-02 -8.508765e-03 -1.597590e-03
3.940000e+00 8.904202e-02 -1.574875e-02 7.329327e-02 6.944366e-03 -8.501745e-03 -1.593263e-03
3.944000e+00 1.021086e-01 -1.896882e-02 8.313976e-02 -3.773068e-02 -8.558192e-03 -1.606677e-03
3.948000e+00 3.222086e-02 -7.088206e-03 2.513266e-02 -4.680802e-02 -8.616467e-03 -1.619034e-03
3.952000e+00 -1.243044e-02 1.299304e-02 5.625946e-04 -1.162908e-03 -8.599638e-03 -1.597206e-03
3.956000e+00 3.194889e-02 2.552818e-02 5.747707e-02 4.706342e-02 -8.515400e-03 -1.583022e-03
3.960000e+00 6.151152e-02 2.122572e-02 8.273725e-02 5.549355e-02 -8.490878e-03 -1.592542e-03
3.964000e+00 2.326692e-02 4.150590e-03 2.741751e-02 -4.530463e-03 -8.563529e-03 -1.622352e-03
3.968000e+00 -1.570400e-02 -1.005710e-02 -2.576110e-02 -4.373788e-02 -8.606899e-03 -1.635382e-03
3.972000e+00 2.586972e-02 -1.368782e-02 1.218190e-02 -1.991716e-02 -8.552951e-03 -1.610524e-03
3.976000e+00 7.550219e-02 -2.244952e-03 7.325724e-02 -1.667538e-02 -8.535738e-03 -1.611245e-03
3.980000e+00 4.152522e-02 2.090916e-02 6.243438e-02 -1.072974e-02 -8.564395e-03 -1.624756e-03
3.984000e+00 -3.416138e-02 2.788538e-02 -6.276000e-03 1.282916e-02 -8.589252e-03 -1.609322e-03
3.988000e+00 -7.275766e-03 9.321414e-03 2.045648e-03 3.397143e-02 -8.568241e-03 -1.573502e-03
3.992000e+00 6.781885e-02 -1.278562e-02 5.503323e-02 3.089968e-02 -8.535498e-03 -1.580281e-03
3.996000e+00 6.925799e-02 -1.914974e-02 5.010824e-02 1.354709e-02 -8.543095e-03 -1.608504e-03
4.000000e+00 4.824283e-02 -1.058561e-02 3.765722e-02 2.603611e-02 -8.512467e-03 -1.581339e-03
4.004000e+00 6.605944e-02 2.546315e-03 6.860575e-02 2.323604e-02 -8.498523e-03 -1.548884e-03
4.008000e+00 8.971608e-02 1.101516e-02 1.007312e-01 -1.649490e-02 -8.532276e-03 -1.569511e-03
4.012000e+00 2.648365e-02 6.289309e-03 3.277296e-02 -6.030905e-02 -8.597955e-03 -1.637593e-03
4.016000e+00 -3.397349e-02 -7.730885e-03 -4.170438e-02 -3.720567e-02 -8.610168e-03 -1.632689e-03
4.020000e+00 1.111882e-02 -1.389311e-02 -2.774285e-03 3.530475e-02 -8.529873e-03 -1.552586e-03
4.024000e+00 9.077688e-02 -1.785347e-03 8.899153e-02 5.164514e-02 -8.487705e-03 -1.546816e-03
4.028000e+00 6.467508e-02 1.582337e-02 8.049846e-02 -1.255132e-02 -8.530785e-03 -1.612495e-03
4.032000e+00 -1.592850e-02 1.509669e-02 -8.318088e-04 -5.559510e-02 -8.573482e-03 -1.642498e-03
4.036000e+00 -1.112245e-03 -5.204493e-03 -6.316738e-03 -3.140447e-02 -8.562087e-03 -1.618457e-03
4.040000e+00 3.924009e-02 -1.833039e-02 2.090970e-02 -1.532208e-02 -8.561173e-03 -1.613505e-03
4.044000e+00 1.761829e-02 -1.052894e-02 7.089358e-03 -1.284513e-02 -8.585454e-03 -1.614034e-03
4.048000e+00 -1.269071e-02 1.423017e-03 -1.126769e-02 -1.061457e-02 -8.599398e-03 -1.603312e-03
4.052000e+00 -1.534952e-02 7.722245e-03 -7.627277e-03 6.504071e-03 -8.609927e-03 -1.579512e-03
4.056000e+00 -6.177250e-03 9.602915e-03 3.425665e-03 4.329723e-02 -8.593147e-03 -1.561145e-03
4.060000e+00 -2.070088e-02 2.800947e-03 -1.789994e-02 4.621898e-02 -8.591897e-03 -1.593744e-03
4.064000e+00 -5.856487e-02 -8.601240e-03 -6.716611e-02 -1.786105e-03 -8.628295e-03 -1.631295e-03
4.068000e+00 -8.167593e-02 -1.190406e-02 -9.357999e-02 -2.203955e-02 -8.642286e-03 -1.614803e-03
4.072000e+00 -4.509991e-02 -4.243710e-03 -4.934362e-02 1.348072e-02 -8.603004e-03 -1.582877e-03
4.076000e+00 -4.885623e-03 6.085216e-03 1.199593e-03 2.856349e-02 -8.565164e-03 -1.583022e-03
4.080000e+00 -9.559605e-03 6.742549e-03 -2.817056e-03 6.536944e-04 -8.581945e-03 -1.594657e-03
4.084000e+00 -3.814782e-02 -4.577235e-03 -4.272505e-02 -3.708044e-02 -8.644787e-03 -1.611966e-03
4.088000e+00 -8.186850e-02 -9.954145e-03 -9.182264e-02 -3.509399e-02 -8.690127e-03 -1.613986e-03
4.092000e+00 -9.115746e-02 -4.781623e-04 -9.163563e-02 1.705584e-02 -8.648536e-03 -1.580569e-03
4.096000e+00 -4.441525e-02 1.124897e-02 -3.316628e-02 4.027696e-02 -8.584685e-03 -1.580762e-03
4.100000e+00 -1.923192e-02 1.626230e-02 -2.969614e-03 1.764697e-02 -8.569443e-03 -1.610524e-03
4.104000e+00 -4.220712e-02 9.831279e-03 -3.237584e-02 -2.330993e-03 -8.583386e-03 -1.616534e-03
4.108000e+00 -2.837919e-02 -7.311565e-03 -3.569076e-02 9.278895e-03 -8.577136e-03 -1.585810e-03
4.112000e+00 1.001256e-02 -1.954313e-02 -9.530568e-03 -1.389878e-02 -8.589878e-03 -1.586051e-03
4.116000e+00 3.807354e-03 -1.008493e-02 -6.277576e-03 -5.946617e-02 -8.622428e-03 -1.634036e-03
4.120000e+00 -4.245506e-02 1.213545e-02 -3.031961e-02 -4.981920e-02 -8.619111e-03 -1.643267e-03
4.124000e+00 -6.224110e-03 2.254135e-02 1.631724e-02 5.100273e-02 -8.514679e-03 -1.566530e-03
4.128000e+00 7.196369e-02 9.816821e-03 8.178051e-02 7.687963e-02 -8.480733e-03 -1.551384e-03
4.132000e+00 7.937014e-02 -7.935914e-03 7.143422e-02 7.940273e-03 -8.521073e-03 -1.628074e-03
4.136000e+00 1.799374e-02 -1.778481e-02 2.089316e-04 -2.302382e-02 -8.530498e-03 -1.622688e-03
4.140000e+00 7.264437e-02 -1.869629e-02 5.394807e-02 -2.982359e-02 -8.505351e-03 -1.579271e-03
4.144000e+00 1.289660e-01 -4.290883e-04 1.285369e-01 -3.128892e-02 -8.514294e-03 -1.579223e-03
4.148000e+00 9.159038e-02 1.844862e-02 1.100390e-01 3.507768e-03 -8.505784e-03 -1.588455e-03
4.152000e+00 5.368209e-02 1.166547e-02 6.534756e-02 2.286256e-02 -8.500880e-03 -1.596292e-03
4.156000e+00 6.140521e-02 -5.713620e-03 5.569159e-02 -1.916335e-03 -8.513669e-03 -1.615572e-03
4.160000e+00 5.611452e-02 -8.093194e-03 4.802132e-02 1.027255e-02 -8.500302e-03 -1.590570e-03
4.164000e+00 8.374141e-02 -4.681475e-03 7.905994e-02 1.902559e-02 -8.476694e-03 -1.565472e-03
4.168000e+00 1.029759e-01 1.268536e-03 1.042445e-01 -2.606467e-02 -8.509775e-03 -1.588839e-03
4.172000e+00 5.186594e-02 1.228221e-02 6.414815e-02 -6.293012e-02 -8.563481e-03 -1.637930e-03
4.176000e+00 -4.325212e-03 1.525091e-02 1.092570e-02 -1.566274e-02 -8.551316e-03 -1.636247e-03
4.180000e+00 1.018552e-02 8.559497e-04 1.104147e-02 3.393846e-02 -8.518477e-03 -1.590714e-03
4.184000e+00 7.786811e-02 -1.106021e-02 6.680790e-02 4.578154e-02 -8.486743e-03 -1.566530e-03
4.188000e+00 8.966414e-02 -6.418483e-03 8.324566e-02 2.223656e-02 -8.492225e-03 -1.581916e-03
4.192000e+00 3.775365e-02 7.418861e-03 4.517251e-02 -4.299927e-02 -8.555164e-03 -1.629901e-03
4.196000e+00 -5.499157e-02 1.688744e-02 -3.810413e-02 -9.372964e-02 -8.656181e-03 -1.669616e-03
4.200000e+00 -1.040274e-01 7.971912e-03 -9.605546e-02 -4.648160e-02 -8.678347e-03 -1.650575e-03
4.204000e+00 -7.494327e-02 -1.375401e-02 -8.869728e-02 4.397408e-02 -8.628487e-03 -1.596388e-03
4.208000e+00 -3.900674e-02 -2.325466e-02 -6.226140e-02 4.016921e-02 -8.638680e-03 -1.604514e-03
4.212000e+00 -1.108669e-01 -1.183712e-02 -1.227040e-01 -1.645559e-02 -8.734602e-03 -1.639853e-03
4.216000e+00 -2.293280e-01 -6.196434e-03 -2.355245e-01 -2.269944e-02 -8.838938e-03 -1.609322e-03
4.220000e+00 -3.105811e-01 -1.647735e-02 -3.270585e-01 -4.190754e-02 -8.981594e-03 -1.608024e-03
4.224000e+00 -4.079455e-01 -1.703188e-02 -4.249774e-01 -3.498970e-02 -9.094729e-03 -1.631103e-03
4.228000e+00 -3.899034e-01 -8.142408e-03 -3.980458e-01 1.570103e-01 -8.866392e-03 -1.569270e-03
4.232000e+00 -1.837374e-01 -9.862568e-03 -1.936000e-01 2.945198e-01 -8.517612e-03 -1.542249e-03
4.236000e+00 3.181258e-02 -1.102015e-02 2.079243e-02 1.860287e-01 -8.346683e-03 -1.599033e-03
4.240000e+00 7.198617e-02 1.823324e-02 9.021942e-02 2.919724e-02 -8.299756e-03 -1.625910e-03
4.244000e+00 1.615280e-01 2.749321e-02 1.890212e-01 -7.497384e-02 -8.254512e-03 -1.617400e-03
4.248000e+00 3.349030e-01 3.259518e-02 3.674982e-01 -1.593441e-01 -8.196526e-03 -1.604562e-03
4.252000e+00 4.269866e-01 7.469090e-02 5.016775e-01 -1.759760e-01 -8.174120e-03 -1.584608e-03
4.256000e+00 4.265272e-01 1.184850e-01 5.450122e-01 -1.072204e-01 -8.169553e-03 -1.569703e-03
4.260000e+00 3.397567e-01 1.168955e-01 4.566521e-01 -6.295263e-02 -8.247011e-03 -1.586051e-03
4.264000e+00 2.423339e-01 7.958830e-02 3.219222e-01 -4.201304e-02 -8.347886e-03 -1.593455e-03
4.268000e+00 1.578148e-01 2.707528e-02 1.848901e-01 -3.917779e-02 -8.454385e-03 -1.616967e-03
4.272000e+00 1.086229e-01 -1.969943e-02 8.892345e-02 -3.158562e-02 -8.523141e-03 -1.637449e-03
4.276000e+00 7.704819e-02 -4.398337e-02 3.306482e-02 -2.061378e-02 -8.552615e-03 -1.626054e-03
4.280000e+00 9.479517e-02 -4.469280e-02 5.010237e-02 1.715820e-02 -8.535642e-03 -1.614178e-03
4.284000e+00 7.350075e-02 -4.038415e-02 3.311660e-02 4.478560e-02 -8.548528e-03 -1.626727e-03
4.288000e+00 1.779740e-03 -5.221429e-02 -5.043455e-02 4.384193e-02 -8.608677e-03 -1.632208e-03
4.292000e+00 -2.432057e-02 -7.698543e-02 -1.013060e-01 5.003828e-02 -8.621083e-03 -1.620284e-03
4.296000e+00 2.950315e-02 -9.008260e-02 -6.057945e-02 7.690340e-02 -8.551941e-03 -1.587734e-03
4.300000e+00 1.105420e-01 -7.032374e-02 4.021821e-02 8.297691e-02 -8.462511e-03 -1.557394e-03
4.304000e+00 1.014240e-01 -2.093659e-02 8.048738e-02 2.174527e-02 -8.487561e-03 -1.579416e-03
4.308000e+00 -4.303126e-03 2.474216e-02 2.043903e-02 -4.561802e-02 -8.582233e-03 -1.619034e-03
4.312000e+00 -8.449602e-02 3.393333e-02 -5.056269e-02 -3.255902e-02 -8.601081e-03 -1.621487e-03
4.316000e+00 -6.148578e-02 1.800666e-02 -4.347912e-02 1.317975e-02 -8.557519e-03 -1.604177e-03
4.320000e+00 -3.478406e-02 2.459088e-02 -1.019317e-02 3.429310e-02 -8.533959e-03 -1.564174e-03
4.324000e+00 -6.092936e-02 5.006680e-02 -1.086257e-02 1.120005e-02 -8.575502e-03 -1.546143e-03
4.328000e+00 -8.464920e-02 5.837594e-02 -2.627326e-02 -2.008856e-02 -8.616370e-03 -1.572925e-03
4.332000e+00 -8.347409e-02 4.271639e-02 -4.075770e-02 -1.181821e-02 -8.586416e-03 -1.599273e-03
4.336000e+00 -4.765425e-02 1.180073e-02 -3.585351e-02 1.716960e-02 -8.535738e-03 -1.606245e-03
4.340000e+00 -1.348370e-02 -1.621769e-02 -2.970140e-02 1.999938e-02 -8.520353e-03 -1.602927e-03
4.344000e+00 -1.689704e-02 -3.177657e-02 -4.867362e-02 -2.852704e-02 -8.563529e-03 -1.615092e-03
4.348000e+00 -3.935178e-02 -3.239315e-02 -7.174493e-02 -9.148902e-02 -8.640748e-03 -1.632353e-03
4.352000e+00 -2.895751e-02 -1.481620e-02 -4.377371e-02 -3.723223e-02 -8.597570e-03 -1.591772e-03
4.356000e+00 3.660810e-02 -1.502416e-03 3.510568e-02 7.694684e-02 -8.473617e-03 -1.536623e-03
4.360000e+00 8.015705e-02 6.505931e-04 8.080765e-02 6.423020e-02 -8.468810e-03 -1.539749e-03
4.364000e+00 1.206915e-02 8.357530e-03 2.042668e-02 -2.906537e-02 -8.575261e-03 -1.584320e-03
4.368000e+00 -7.299449e-02 1.178090e-03 -7.181640e-02 -4.151884e-02 -8.636179e-03 -1.602302e-03
4.372000e+00 -6.123486e-02 -2.984483e-02 -9.107969e-02 7.237934e-04 -8.607090e-03 -1.583406e-03
4.376000e+00 -7.889172e-03 -3.679123e-02 -4.468040e-02 1.717945e-02 -8.562231e-03 -1.567876e-03
4.380000e+00 6.398875e-03 -9.535920e-03 -3.137046e-03 -9.958035e-04 -8.545258e-03 -1.592734e-03
4.384000e+00 -1.833682e-02 1.648259e-02 -1.854229e-03 1.299863e-02 -8.521458e-03 -1.583935e-03
4.388000e+00 -3.159796e-02 1.101843e-02 -2.057953e-02 -4.530958e-03 -8.552615e-03 -1.586291e-03
4.392000e+00 -3.728890e-02 -5.519518e-05 -3.734409e-02 -2.091232e-02 -8.587330e-03 -1.599129e-03
4.396000e+00 -4.220582e-02 -1.200407e-02 -5.420989e-02 -1.917280e-02 -8.576607e-03 -1.597206e-03
4.400000e+00 5.080780e-03 -2.057808e-02 -1.549730e-02 -1.560951e-02 -8.555836e-03 -1.577636e-03
4.404000e+00 2.439320e-02 -7.426662e-04 2.365054e-02 7.906773e-04 -8.555404e-03 -1.546288e-03
4.408000e+00 -3.269121e-02 2.841315e-02 -4.278061e-03 1.985596e-02 -8.590887e-03 -1.554942e-03
4.412000e+00 -9.427675e-02 2.804031e-02 -6.623644e-02 1.625843e-02 -8.614494e-03 -1.592109e-03
4.416000e+00 -1.065548e-01 1.234111e-03 -1.053207e-01 -3.925529e-03 -8.610601e-03 -1.605860e-03
4.420000e+00 -7.849175e-02 -2.048463e-02 -9.897638e-02 -3.669761e-02 -8.628727e-03 -1.631632e-03
4.424000e+00 -9.990325e-02 -1.064778e-02 -1.105510e-01 -2.043151e-02 -8.646373e-03 -1.605668e-03
4.428000e+00 -9.101128e-02 1.452101e-03 -8.955918e-02 4.021579e-02 -8.607187e-03 -1.522680e-03
4.432000e+00 -7.148122e-03 -5.014134e-03 -1.216226e-02 3.912923e-02 -8.581992e-03 -1.536767e-03
4.436000e+00 2.602884e-03 -3.968871e-03 -1.365987e-03 1.949049e-02 -8.561269e-03 -1.597446e-03
4.440000e+00 -5.940077e-02 -5.119512e-03 -6.452028e-02 2.120780e-02 -8.551749e-03 -1.592638e-03
4.444000e+00 -6.016654e-02 -2.074407e-02 -8.091061e-02 -2.720785e-02 -8.611370e-03 -1.590811e-03
4.448000e+00 -8.087596e-02 -1.853159e-02 -9.940755e-02 -8.499954e-02 -8.695272e-03 -1.611822e-03
4.452000e+00 -1.113941e-01 -1.187921e-02 -1.232733e-01 -5.400713e-02 -8.702339e-03 -1.598888e-03
4.456000e+00 -8.946738e-02 -2.796627e-02 -1.174337e-01 3.501652e-03 -8.685944e-03 -1.586147e-03
4.460000e+00 -9.724222e-02 -3.584130e-02 -1.330835e-01 3.868582e-02 -8.689934e-03 -1.584512e-03
4.464000e+00 -1.406486e-01 -2.964364e-02 -1.702923e-01 6.250764e-02 -8.685559e-03 -1.554029e-03
4.468000e+00 -1.239433e-01 -3.358364e-02 -1.575269e-01 4.351340e-02 -8.696329e-03 -1.522584e-03
4.472000e+00 -9.485624e-02 -3.383853e-02 -1.286948e-01 -1.089343e-02 -8.721764e-03 -1.577588e-03
4.476000e+00 -1.618227e-01 -2.170716e-02 -1.835298e-01 -2.232683e-02 -8.735948e-03 -1.636151e-03
4.480000e+00 -1.799730e-01 -2.872371e-02 -2.086968e-01 2.418427e-02 -8.679933e-03 -1.582541e-03
4.484000e+00 -9.964156e-02 -3.948850e-02 -1.391301e-01 2.200353e-02 -8.659354e-03 -1.545999e-03
4.488000e+00 -1.152050e-01 -2.311927e-03 -1.175169e-01 -2.770249e-02 -8.734553e-03 -1.563404e-03
4.492000e+00 -2.371293e-01 4.815653e-02 -1.889727e-01 -4.175261e-02 -8.792779e-03 -1.575761e-03
4.496000e+00 -2.478749e-01 4.699487e-02 -2.008801e-01 2.473753e-02 -8.749747e-03 -1.532681e-03
4.500000e+00 -1.631415e-01 5.076586e-04 -1.626338e-01 1.847862e-02 -8.741669e-03 -1.543595e-03
4.504000e+00 -1.358609e-01 -2.096322e-02 -1.568242e-01 1.894596e-02 -8.726428e-03 -1.573261e-03
4.508000e+00 -1.702124e-01 -3.243224e-02 -2.026447e-01 1.881704e-02 -8.717004e-03 -1.590474e-03
4.512000e+00 -1.572808e-01 -3.987761e-02 -1.971584e-01 -5.957546e-03 -8.717773e-03 -1.587974e-03
4.516000e+00 -1.073575e-01 -2.389289e-02 -1.312504e-01 1.083960e-02 -8.649834e-03 -1.547441e-03
4.520000e+00 -4.408744e-02 -1.232643e-02 -5.641387e-02 9.210613e-03 -8.616226e-03 -1.533017e-03
4.524000e+00 -1.656099e-02 -6.642942e-03 -2.320393e-02 -3.996244e-02 -8.649114e-03 -1.560087e-03
4.528000e+00 -8.820551e-02 1.106768e-02 -7.713783e-02 -5.157208e-02 -8.697771e-03 -1.572828e-03
4.532000e+00 -1.184231e-01 1.207790e-02 -1.063452e-01 -3.412742e-02 -8.699070e-03 -1.602975e-03
4.536000e+00 -1.085428e-01 3.502949e-03 -1.050399e-01 -5.897211e-03 -8.658634e-03 -1.600138e-03
4.540000e+00 -8.526487e-02 2.480424e-03 -8.278445e-02 -3.637325e-03 -8.648729e-03 -1.580185e-03
4.544000e+00 -4.848816e-02 2.153977e-02 -2.694839e-02 5.692015e-02 -8.595118e-03 -1.518352e-03
4.548000e+00 6.964225e-03 3.093348e-02 3.789770e-02 1.022804e-01 -8.509823e-03 -1.478541e-03
4.552000e+00 5.841289e-02 2.683054e-02 8.524343e-02 1.489970e-02 -8.518862e-03 -1.542249e-03
4.556000e+00 8.045870e-03 2.995905e-02 3.800492e-02 -1.220074e-01 -8.614111e-03 -1.646200e-03
4.560000e+00 -2.913737e-02 2.479015e-02 -4.347223e-03 -7.874245e-02 -8.575357e-03 -1.647114e-03
4.564000e+00 4.381304e-02 -7.331378e-03 3.648166e-02 3.180952e-02 -8.487705e-03 -1.562924e-03
4.568000e+00 1.381403e-01 -1.016542e-02 1.279748e-01 3.248705e-02 -8.467847e-03 -1.546913e-03
4.572000e+00 9.078744e-02 3.072730e-02 1.215147e-01 -1.285327e-02 -8.505207e-03 -1.585089e-03
4.576000e+00 8.678925e-02 3.472066e-02 1.215099e-01 5.168326e-03 -8.458136e-03 -1.554798e-03
4.580000e+00 1.739970e-01 6.324401e-04 1.746295e-01 5.456531e-03 -8.440250e-03 -1.527344e-03
4.584000e+00 2.067094e-01 3.875539e-03 2.105849e-01 1.133658e-02 -8.455250e-03 -1.522007e-03
4.588000e+00 1.372712e-01 1.949628e-02 1.567674e-01 3.182069e-02 -8.465924e-03 -1.517487e-03
4.592000e+00 1.430251e-01 9.942758e-04 1.440194e-01 3.395100e-02 -8.451548e-03 -1.522824e-03
4.596000e+00 1.508799e-01 -1.441239e-02 1.364675e-01 -2.065160e-02 -8.472319e-03 -1.578742e-03
4.600000e+00 6.038685e-02 -2.704274e-03 5.768257e-02 -6.548564e-02 -8.555596e-03 -1.609899e-03
4.604000e+00 4.487292e-02 -9.005316e-04 4.397239e-02 -1.703327e-02 -8.514342e-03 -1.566818e-03
4.608000e+00 1.407165e-01 -3.565267e-03 1.371512e-01 5.823385e-02 -8.400919e-03 -1.509313e-03
4.612000e+00 2.182884e-01 2.483268e-02 2.431210e-01 4.030187e-02 -8.356636e-03 -1.524266e-03
4.616000e+00 1.352542e-01 6.789549e-02 2.031497e-01 2.271142e-06 -8.408420e-03 -1.548018e-03
4.620000e+00 8.023827e-02 4.974646e-02 1.299847e-01 -2.220059e-02 -8.457558e-03 -1.553356e-03
4.624000e+00 1.162115e-01 -3.719941e-04 1.158395e-01 -4.965749e-02 -8.483763e-03 -1.557154e-03
4.628000e+00 1.601072e-01 -1.066567e-02 1.494415e-01 -4.242528e-02 -8.468521e-03 -1.551288e-03
4.632000e+00 1.295646e-01 7.995655e-03 1.375603e-01 -2.094528e-02 -8.484724e-03 -1.573886e-03
4.636000e+00 6.018571e-02 3.159675e-02 9.178247e-02 2.495430e-02 -8.478234e-03 -1.571626e-03
4.640000e+00 6.026710e-02 3.081010e-02 9.107720e-02 7.060592e-02 -8.407795e-03 -1.530325e-03
4.644000e+00 1.624484e-01 -5.485993e-03 1.569624e-01 4.214589e-02 -8.387697e-03 -1.516766e-03
4.648000e+00 2.062928e-01 -3.555149e-02 1.707414e-01 -3.291882e-02 -8.450442e-03 -1.540374e-03
4.652000e+00 1.588278e-01 -3.860355e-02 1.202243e-01 -4.451191e-02 -8.488187e-03 -1.562347e-03
4.656000e+00 1.335427e-01 -3.249975e-02 1.010430e-01 -1.026700e-02 -8.465876e-03 -1.553596e-03
4.660000e+00 1.434439e-01 -1.094575e-02 1.324982e-01 2.254816e-02 -8.426546e-03 -1.518977e-03
4.664000e+00 1.178410e-01 1.878201e-02 1.366230e-01 2.129493e-02 -8.450058e-03 -1.524988e-03
4.668000e+00 4.825785e-02 2.913158e-02 7.738944e-02 -2.866072e-03 -8.503428e-03 -1.556433e-03
4.672000e+00 2.226661e-02 1.176015e-02 3.402676e-02 -6.197822e-03 -8.497561e-03 -1.551577e-03
4.676000e+00 9.703742e-02 -7.196785e-03 8.984064e-02 1.477995e-02 -8.433758e-03 -1.531479e-03
4.680000e+00 1.615319e-01 -1.557976e-03 1.599739e-01 4.370545e-02 -8.377167e-03 -1.499505e-03
4.684000e+00 1.675509e-01 1.189634e-02 1.794473e-01 3.978198e-02 -8.369426e-03 -1.487388e-03
4.688000e+00 1.500469e-01 1.440124e-02 1.644481e-01 5.913760e-03 -8.404285e-03 -1.488542e-03
4.692000e+00 1.218310e-01 8.607374e-03 1.304384e-01 -4.903260e-02 -8.464050e-03 -1.516910e-03
4.696000e+00 8.018867e-02 7.820508e-03 8.800918e-02 -5.276829e-02 -8.498043e-03 -1.535902e-03
4.700000e+00 5.845588e-02 4.658608e-03 6.311449e-02 -4.989483e-03 -8.477992e-03 -1.510708e-03
4.704000e+00 7.396915e-02 3.197210e-03 7.716636e-02 2.333425e-02 -8.455154e-03 -1.495177e-03
4.708000e+00 7.835761e-02 1.329908e-02 9.165669e-02 1.636159e-02 -8.444336e-03 -1.518737e-03
4.712000e+00 7.155779e-02 1.673950e-02 8.829729e-02 2.397134e-02 -8.400054e-03 -1.526767e-03
4.716000e+00 7.819673e-02 -2.998345e-03 7.519838e-02 -2.100761e-02 -8.433758e-03 -1.533258e-03
4.720000e+00 9.860181e-02 -5.371651e-03 9.323016e-02 -4.337194e-02 -8.452366e-03 -1.522103e-03
4.724000e+00 7.653675e-02 3.373564e-03 7.991031e-02 -4.458471e-02 -8.472800e-03 -1.539893e-03
4.728000e+00 6.453576e-02 4.067109e-03 6.860287e-02 -4.042265e-02 -8.489244e-03 -1.555519e-03
4.732000e+00 4.374333e-02 5.527466e-03 4.927080e-02 3.216613e-03 -8.477609e-03 -1.505467e-03
4.736000e+00 8.923608e-02 7.121494e-03 9.635757e-02 8.328430e-02 -8.416786e-03 -1.441134e-03
4.740000e+00 1.603790e-01 -3.358287e-03 1.570207e-01 9.558623e-02 -8.353030e-03 -1.457145e-03
4.744000e+00 1.695946e-01 -1.283699e-02 1.567576e-01 4.980295e-02 -8.333461e-03 -1.483734e-03
4.748000e+00 1.580965e-01 -1.564542e-02 1.424511e-01 -2.642373e-03 -8.358704e-03 -1.466329e-03
4.752000e+00 1.314600e-01 -9.755946e-03 1.217040e-01 -7.025320e-02 -8.446836e-03 -1.499120e-03
4.756000e+00 5.836819e-02 1.159872e-02 6.996691e-02 -9.473522e-02 -8.502611e-03 -1.538979e-03
4.760000e+00 8.089170e-03 3.052723e-02 3.861640e-02 -5.324234e-02 -8.477031e-03 -1.530565e-03
4.764000e+00 7.204092e-02 3.413726e-02 1.061782e-01 5.366537e-02 -8.360771e-03 -1.488158e-03
4.768000e+00 1.207441e-01 1.689609e-02 1.376402e-01 9.216277e-02 -8.320191e-03 -1.455655e-03
4.772000e+00 1.368922e-01 -2.135882e-03 1.347563e-01 2.605653e-02 -8.358800e-03 -1.466906e-03
4.776000e+00 1.307422e-01 -7.813826e-03 1.229284e-01 -4.234823e-02 -8.395245e-03 -1.487821e-03
4.780000e+00 1.332105e-01 -3.665243e-03 1.295453e-01 -6.716968e-02 -8.408275e-03 -1.508592e-03
4.784000e+00 1.167108e-01 1.293574e-02 1.296465e-01 -2.841516e-02 -8.392985e-03 -1.502197e-03
4.788000e+00 6.426587e-02 2.391310e-02 8.817897e-02 -1.399487e-02 -8.428181e-03 -1.504890e-03
4.792000e+00 2.120186e-02 1.448724e-02 3.568910e-02 -4.575490e-02 -8.491360e-03 -1.553500e-03
4.796000e+00 2.846968e-02 -8.183912e-03 2.028576e-02 1.613955e-02 -8.419671e-03 -1.536287e-03
4.800000e+00 1.290424e-01 -3.543143e-02 9.361100e-02 9.421909e-02 -8.291342e-03 -1.474118e-03
4.804000e+00 2.018369e-01 -2.617847e-02 1.756584e-01 3.531130e-02 -8.301632e-03 -1.481667e-03
4.808000e+00 1.315376e-01 1.995066e-02 1.514882e-01 -5.124956e-02 -8.384187e-03 -1.508881e-03
4.812000e+00 8.489135e-02 2.949563e-02 1.143870e-01 -4.955985e-02 -8.399861e-03 -1.510515e-03
4.816000e+00 1.404973e-01 2.407518e-04 1.407380e-01 1.091527e-02 -8.351588e-03 -1.484936e-03
4.820000e+00 1.488853e-01 -1.175949e-02 1.371258e-01 2.403944e-02 -8.360194e-03 -1.487436e-03
4.824000e+00 8.497234e-02 1.354660e-03 8.632700e-02 8.532702e-03 -8.406640e-03 -1.495418e-03
4.828000e+00 8.089600e-02 6.074734e-03 8.697074e-02 3.447050e-02 -8.357165e-03 -1.461953e-03
4.832000e+00 1.549555e-01 6.113850e-03 1.610694e-01 6.282361e-02 -8.278552e-03 -1.440557e-03
4.836000e+00 1.547632e-01 1.641212e-02 1.711754e-01 1.170428e-02 -8.323653e-03 -1.468829e-03
4.840000e+00 8.378697e-02 1.762782e-02 1.014148e-01 -2.393219e-02 -8.378753e-03 -1.474454e-03
4.844000e+00 8.944173e-02 -1.126099e-02 7.818073e-02 -3.522721e-02 -8.382889e-03 -1.479503e-03
4.848000e+00 1.338508e-01 -1.748119e-02 1.163696e-01 -4.643948e-02 -8.371012e-03 -1.501909e-03
4.852000e+00 7.614767e-02 1.778131e-02 9.392898e-02 -2.820813e-02 -8.377984e-03 -1.519314e-03
4.856000e+00 6.433697e-03 3.599147e-02 4.242517e-02 1.498337e-02 -8.379523e-03 -1.507342e-03
4.860000e+00 2.467916e-02 1.628468e-02 4.096385e-02 7.137404e-03 -8.368464e-03 -1.498639e-03
4.864000e+00 1.006791e-01 4.042766e-03 1.047218e-01 6.111253e-03 -8.322883e-03 -1.473589e-03
4.868000e+00 1.266009e-01 3.835901e-04 1.269845e-01 -2.865136e-02 -8.357261e-03 -1.503255e-03
4.872000e+00 7.477682e-02 2.813088e-03 7.758990e-02 -4.460896e-02 -8.402313e-03 -1.552298e-03
4.876000e+00 5.804107e-02 4.068048e-04 5.844788e-02 3.162752e-02 -8.311200e-03 -1.499360e-03
4.880000e+00 1.617769e-01 -1.540644e-02 1.463705e-01 5.384894e-02 -8.255089e-03 -1.444692e-03
4.884000e+00 1.799282e-01 -9.781199e-03 1.701470e-01 -1.957111e-02 -8.357502e-03 -1.477580e-03
4.888000e+00 6.124998e-02 3.812856e-03 6.506284e-02 -1.550473e-02 -8.406593e-03 -1.503543e-03
4.892000e+00 4.122611e-02 -1.712956e-02 2.409655e-02 1.632769e-02 -8.363896e-03 -1.491187e-03
4.896000e+00 1.223226e-01 -1.411112e-02 1.082115e-01 2.843091e-04 -8.320623e-03 -1.478205e-03
4.900000e+00 1.099517e-01 3.737238e-02 1.473241e-01 2.850011e-02 -8.292496e-03 -1.472291e-03
4.904000e+00 5.483869e-02 4.162945e-02 9.646815e-02 5.023495e-02 -8.308026e-03 -1.474791e-03
4.908000e+00 5.357292e-02 -6.561206e-03 4.701171e-02 -1.970144e-02 -8.364858e-03 -1.496235e-03
4.912000e+00 8.273572e-02 -2.115969e-02 6.157603e-02 -5.060655e-02 -8.362358e-03 -1.499649e-03
4.916000e+00 1.146313e-01 -4.778392e-03 1.098529e-01 4.207311e-03 -8.302016e-03 -1.465800e-03
4.920000e+00 1.192394e-01 7.261015e-03 1.265004e-01 1.534017e-02 -8.305334e-03 -1.467819e-03
4.924000e+00 6.026782e-02 2.689719e-02 8.716501e-02 -2.334904e-03 -8.347212e-03 -1.476522e-03
4.928000e+00 1.568504e-02 3.213456e-02 4.781959e-02 -7.225242e-03 -8.361781e-03 -1.474262e-03
4.932000e+00 4.805045e-02 7.073096e-03 5.512355e-02 -8.897012e-03 -8.353704e-03 -1.495899e-03
4.936000e+00 6.222145e-02 -1.532818e-02 4.689326e-02 -5.013610e-03 -8.343895e-03 -1.506717e-03
4.940000e+00 3.995848e-02 -9.969416e-03 2.998907e-02 -6.045498e-03 -8.346491e-03 -1.501284e-03
4.944000e+00 3.806878e-02 1.071045e-02 4.877923e-02 2.908394e-03 -8.339135e-03 -1.469166e-03
4.948000e+00 6.520822e-02 1.411729e-02 7.932552e-02 7.630786e-03 -8.332644e-03 -1.451424e-03
4.952000e+00 7.851712e-02 -1.566605e-03 7.695052e-02 4.948368e-03 -8.352068e-03 -1.467483e-03
4.956000e+00 4.020941e-02 -1.837433e-02 2.183508e-02 -2.524889e-02 -8.391879e-03 -1.519795e-03
4.960000e+00 -1.181110e-02 -2.092784e-02 -3.273894e-02 -3.183045e-02 -8.403803e-03 -1.537825e-03
4.964000e+00 2.411108e-02 -1.213479e-02 1.197629e-02 3.022619e-02 -8.309517e-03 -1.484551e-03
4.968000e+00 7.667440e-02 2.674402e-03 7.934880e-02 5.214716e-02 -8.280620e-03 -1.444211e-03
4.972000e+00 8.281906e-02 2.471076e-02 1.075298e-01 8.116077e-03 -8.302978e-03 -1.485705e-03
4.976000e+00 3.909056e-02 2.692355e-02 6.601411e-02 2.138632e-03 -8.287256e-03 -1.495851e-03
4.980000e+00 1.156789e-01 -1.082992e-02 1.048490e-01 -1.599265e-03 -8.239270e-03 -1.473685e-03
4.984000e+00 1.540452e-01 -3.029461e-02 1.237506e-01 -5.311481e-02 -8.315142e-03 -1.482773e-03
4.988000e+00 8.312784e-02 -5.385116e-04 8.258933e-02 -3.677103e-02 -8.347549e-03 -1.503447e-03
4.992000e+00 5.698303e-03 2.456442e-02 3.026273e-02 3.428462e-02 -8.303026e-03 -1.475320e-03
4.996000e+00 5.133325e-02 2.363956e-02 7.497281e-02 1.272900e-02 -8.286967e-03 -1.473060e-03
5.000000e+00 5.542103e-02 3.195045e-02 8.737148e-02 -1.147307e-02 -8.309180e-03 -1.491860e-03
5.004000e+00 1.194418e-02 1.637294e-02 2.831712e-02 -2.889609e-03 -8.339135e-03 -1.499072e-03
5.008000e+00 3.706952e-02 -2.322214e-02 1.384737e-02 1.573140e-02 -8.327788e-03 -1.462434e-03
5.012000e+00 1.000715e-01 -3.815978e-02 6.191169e-02 1.852949e-02 -8.300862e-03 -1.446712e-03
5.016000e+00 9.813064e-02 -1.601969e-02 8.211096e-02 2.755867e-03 -8.301103e-03 -1.491908e-03
5.020000e+00 1.950732e-02 1.099424e-02 3.050155e-02 -1.070070e-02 -8.313844e-03 -1.510179e-03
5.024000e+00 -2.932300e-02 1.594612e-02 -1.337688e-02 -4.140921e-02 -8.364569e-03 -1.510467e-03
5.028000e+00 -8.249791e-03 1.436877e-02 6.118979e-03 -5.042847e-03 -8.349472e-03 -1.478253e-03
5.032000e+00 4.248727e-02 5.363426e-03 4.785070e-02 6.614718e-02 -8.261580e-03 -1.442384e-03
5.036000e+00 1.128653e-01 -8.733769e-03 1.041315e-01 5.670937e-02 -8.217153e-03 -1.450847e-03
5.040000e+00 1.002404e-01 -1.469696e-02 8.554340e-02 -4.175197e-02 -8.293170e-03 -1.494456e-03
5.044000e+00 5.634766e-02 -1.097876e-02 4.536890e-02 -4.060588e-02 -8.313556e-03 -1.486956e-03
5.048000e+00 3.444651e-02 -1.310201e-02 2.134450e-02 -9.481404e-03 -8.324807e-03 -1.462867e-03
5.052000e+00 2.588448e-02 1.071502e-02 3.659950e-02 -9.126836e-03 -8.335240e-03 -1.466954e-03
5.056000e+00 -1.676937e-03 4.588678e-02 4.420985e-02 3.258111e-02 -8.271340e-03 -1.470608e-03
5.060000e+00 3.134165e-02 2.881230e-02 6.015395e-02 5.602620e-02 -8.222442e-03 -1.447481e-03
5.064000e+00 7.858784e-02 -1.504431e-02 6.354353e-02 -1.841518e-02 -8.293361e-03 -1.450366e-03
5.068000e+00 5.987412e-02 -2.462030e-02 3.525382e-02 -4.629157e-02 -8.337933e-03 -1.488158e-03
5.072000e+00 2.139423e-02 -2.126521e-02 1.290196e-04 -2.250597e-02 -8.302064e-03 -1.525276e-03
5.076000e+00 2.270019e-02 -7.054266e-03 1.564593e-02 -1.973675e-02 -8.266388e-03 -1.514794e-03
5.080000e+00 1.919795e-02 2.763723e-02 4.683518e-02 -6.918221e-03 -8.273023e-03 -1.469887e-03
5.084000e+00 4.635186e-03 4.022624e-02 4.486143e-02 1.795208e-02 -8.300333e-03 -1.448250e-03
5.088000e+00 5.169309e-03 1.186692e-02 1.703623e-02 -1.584274e-02 -8.333125e-03 -1.491139e-03
5.092000e+00 1.374055e-02 -1.398256e-02 -2.420106e-04 -4.406804e-02 -8.332596e-03 -1.532344e-03
5.096000e+00 1.232361e-02 -2.265525e-02 -1.033164e-02 -4.090057e-03 -8.313267e-03 -1.508304e-03
5.100000e+00 9.246635e-03 -2.251691e-02 -1.327028e-02 3.483443e-02 -8.310863e-03 -1.490706e-03
5.104000e+00 -1.944045e-02 -9.030068e-03 -2.847052e-02 3.470397e-02 -8.323604e-03 -1.475272e-03
5.108000e+00 -1.079543e-02 -1.663437e-03 -1.245887e-02 1.194674e-02 -8.322402e-03 -1.451664e-03
5.112000e+00 3.431429e-02 -9.039693e-03 2.527460e-02 9.192686e-04 -8.320239e-03 -1.467964e-03
5.116000e+00 1.592061e-02 -6.869631e-03 9.050976e-03 1.590078e-02 -8.310767e-03 -1.490850e-03
5.120000e+00 -3.292381e-02 5.390871e-03 -2.753294e-02 3.290129e-02 -8.295958e-03 -1.466281e-03
5.124000e+00 -2.881614e-02 4.948791e-03 -2.386735e-02 -2.320430e-03 -8.334951e-03 -1.457963e-03
5.128000e+00 -4.233701e-02 -1.024371e-04 -4.243945e-02 -3.556840e-02 -8.395726e-03 -1.479984e-03
5.132000e+00 -7.089798e-02 2.975772e-04 -7.060040e-02 1.328569e-02 -8.359618e-03 -1.464261e-03
5.136000e+00 -3.860179e-02 -2.406371e-03 -4.100816e-02 4.295565e-02 -8.301727e-03 -1.445654e-03
5.140000e+00 -1.980419e-02 5.096116e-03 -1.470807e-02 -5.622884e-03 -8.331730e-03 -1.465030e-03
5.144000e+00 -7.983473e-02 2.010739e-02 -5.972733e-02 -2.674651e-02 -8.378658e-03 -1.478541e-03
5.148000e+00 -1.267588e-01 1.547858e-02 -1.112802e-01 -2.181665e-02 -8.401399e-03 -1.492389e-03
5.152000e+00 -1.051604e-01 5.126468e-03 -1.000339e-01 -1.626526e-02 -8.370532e-03 -1.505996e-03
5.156000e+00 -5.718037e-02 -2.071217e-04 -5.738749e-02 1.628332e-02 -8.299564e-03 -1.482628e-03
5.160000e+00 2.423816e-02 -9.509933e-03 1.472823e-02 5.077250e-02 -8.231433e-03 -1.439980e-03
5.164000e+00 5.939389e-02 -1.351361e-02 4.588028e-02 1.562940e-02 -8.256099e-03 -1.437480e-03
5.168000e+00 1.255394e-02 -7.087650e-03 5.466295e-03 -6.282356e-02 -8.344664e-03 -1.497678e-03
5.172000e+00 -3.555109e-02 -4.397015e-03 -3.994810e-02 -5.073007e-02 -8.330769e-03 -1.523497e-03
5.176000e+00 2.082576e-02 -1.100000e-02 9.825765e-03 2.345391e-02 -8.200036e-03 -1.502245e-03
5.180000e+00 1.000209e-01 3.250850e-03 1.032717e-01 3.969567e-02 -8.132194e-03 -1.473301e-03
5.184000e+00 9.735883e-02 2.778916e-02 1.251480e-01 -1.727396e-02 -8.183016e-03 -1.484311e-03
5.188000e+00 6.824900e-02 1.953761e-02 8.778661e-02 -2.376040e-02 -8.217297e-03 -1.484119e-03
5.192000e+00 9.312421e-02 -2.367846e-02 6.944575e-02 -2.223846e-02 -8.230424e-03 -1.467867e-03
5.196000e+00 1.135674e-01 -3.466399e-02 7.890340e-02 -4.868118e-02 -8.269273e-03 -1.487484e-03
5.200000e+00 5.637843e-02 4.807920e-04 5.685923e-02 -2.315407e-02 -8.268792e-03 -1.508015e-03
5.204000e+00 5.191505e-03 2.755530e-02 3.274681e-02 4.299200e-02 -8.222538e-03 -1.475801e-03
5.208000e+00 3.290086e-02 2.632057e-02 5.922142e-02 5.786214e-02 -8.199940e-03 -1.458588e-03
5.212000e+00 4.199578e-02 1.327410e-02 5.526988e-02 4.289363e-02 -8.215470e-03 -1.469406e-03
5.216000e+00 5.302448e-02 -1.638176e-02 3.664272e-02 2.394570e-02 -8.196046e-03 -1.489552e-03
5.220000e+00 7.207429e-02 -4.036874e-02 3.170555e-02 -4.579697e-02 -8.228692e-03 -1.510852e-03
5.224000e+00 4.740958e-02 -1.858411e-02 2.882547e-02 -1.143951e-01 -8.311776e-03 -1.535758e-03
5.228000e+00 -1.717969e-02 2.967340e-02 1.249370e-02 -1.512473e-02 -8.279274e-03 -1.492725e-03
5.232000e+00 6.631340e-03 3.468355e-02 4.131489e-02 1.055150e-01 -8.176620e-03 -1.433057e-03
5.236000e+00 7.644807e-02 1.433594e-02 9.078402e-02 7.348200e-02 -8.159888e-03 -1.452722e-03
5.240000e+00 6.888244e-02 3.615870e-05 6.891860e-02 9.475557e-03 -8.194507e-03 -1.480032e-03
5.244000e+00 4.179305e-02 -2.975660e-02 1.203645e-02 -2.397169e-02 -8.246434e-03 -1.475560e-03
5.248000e+00 3.246503e-02 -3.740074e-02 -4.935712e-03 -5.913788e-02 -8.306392e-03 -1.482628e-03
5.252000e+00 -2.357775e-02 1.046508e-02 -1.311267e-02 -4.094520e-02 -8.312594e-03 -1.481619e-03
5.256000e+00 -6.675073e-02 4.185117e-02 -2.489956e-02 9.753729e-03 -8.290717e-03 -1.477243e-03
5.260000e+00 -9.071954e-02 1.815679e-02 -7.256275e-02 6.157533e-03 -8.346972e-03 -1.487773e-03
5.264000e+00 -1.729283e-01 -2.060246e-02 -1.935308e-01 -4.588126e-02 -8.495591e-03 -1.507630e-03
5.268000e+00 -2.886632e-01 -4.218273e-02 -3.308459e-01 -6.450901e-02 -8.645027e-03 -1.493687e-03
5.272000e+00 -3.709531e-01 -4.326841e-02 -4.142215e-01 -4.842739e-02 -8.746958e-03 -1.471089e-03
5.276000e+00 -3.518420e-01 -1.189828e-02 -3.637403e-01 7.598958e-02 -8.603822e-03 -1.488638e-03
5.280000e+00 -2.737011e-01 1.379996e-02 -2.599012e-01 2.257209e-01 -8.304757e-03 -1.502678e-03
5.284000e+00 -1.146276e-01 -1.432655e-03 -1.160602e-01 2.052769e-01 -8.101038e-03 -1.488302e-03
5.288000e+00 6.944836e-02 -2.594597e-02 4.350238e-02 7.742321e-02 -8.006751e-03 -1.498495e-03
5.292000e+00 2.074963e-01 -3.239881e-02 1.750975e-01 -2.994468e-02 -7.942610e-03 -1.503592e-03
5.296000e+00 3.399671e-01 -5.069432e-03 3.348977e-01 -1.238075e-01 -7.868517e-03 -1.502341e-03
5.300000e+00 3.783982e-01 7.445392e-02 4.528521e-01 -1.882148e-01 -7.886019e-03 -1.510900e-03
5.304000e+00 3.330259e-01 1.524259e-01 4.854517e-01 -1.317934e-01 -7.896884e-03 -1.478397e-03
5.308000e+00 2.702675e-01 1.465954e-01 4.168629e-01 -6.257823e-02 -7.951361e-03 -1.470175e-03
5.312000e+00 2.263384e-01 8.843435e-02 3.147728e-01 -5.308144e-02 -8.062909e-03 -1.500178e-03
5.316000e+00 1.524562e-01 3.878477e-02 1.912409e-01 9.500824e-03 -8.101807e-03 -1.481859e-03
5.320000e+00 1.383523e-01 -3.241315e-02 1.059391e-01 4.726141e-02 -8.140319e-03 -1.482003e-03
5.324000e+00 1.511527e-01 -7.611204e-02 7.504069e-02 1.254912e-02 -8.177582e-03 -1.501620e-03
5.328000e+00 8.168695e-02 -6.037038e-02 2.131657e-02 -3.481431e-02 -8.244704e-03 -1.510900e-03
5.332000e+00 4.112020e-02 -4.624613e-02 -5.125935e-03 -2.790075e-02 -8.292881e-03 -1.530950e-03
5.336000e+00 -5.768833e-03 -6.197008e-02 -6.773891e-02 3.116585e-02 -8.289515e-03 -1.546336e-03
5.340000e+00 -1.910826e-02 -7.888267e-02 -9.799093e-02 9.846858e-02 -8.230615e-03 -1.507005e-03
5.344000e+00 1.414571e-02 -7.388039e-02 -5.973468e-02 6.977536e-02 -8.216335e-03 -1.488109e-03
5.348000e+00 1.301131e-02 -2.646323e-02 -1.345192e-02 4.119813e-02 -8.218307e-03 -1.460030e-03
5.352000e+00 -1.344729e-02 6.891793e-03 -6.555495e-03 1.265969e-02 -8.236530e-03 -1.460896e-03
5.356000e+00 -5.280779e-02 1.863890e-02 -3.416889e-02 -4.324337e-02 -8.302497e-03 -1.516093e-03
5.360000e+00 -1.076218e-01 3.744176e-02 -7.018000e-02 -1.719977e-02 -8.280764e-03 -1.513641e-03
5.364000e+00 -1.013024e-01 3.015310e-02 -7.114933e-02 5.904810e-02 -8.224846e-03 -1.461521e-03
5.368000e+00 -4.563196e-02 9.531153e-03 -3.610081e-02 6.249633e-02 -8.221480e-03 -1.449597e-03
5.372000e+00 -9.099862e-02 1.891735e-02 -7.208127e-02 1.206699e-03 -8.268119e-03 -1.484311e-03
5.376000e+00 -1.217475e-01 2.476357e-02 -9.698398e-02 -5.195798e-02 -8.282543e-03 -1.524315e-03
5.380000e+00 -1.024869e-01 1.157239e-02 -9.091451e-02 -8.143086e-02 -8.293313e-03 -1.538066e-03
5.384000e+00 -9.507658e-02 1.057127e-02 -8.450531e-02 -6.283503e-02 -8.303219e-03 -1.550952e-03
5.388000e+00 -1.365282e-01 9.862853e-03 -1.266654e-01 -1.327357e-02 -8.309084e-03 -1.562731e-03
5.392000e+00 -1.362429e-01 -1.841641e-02 -1.546593e-01 1.358874e-02 -8.293939e-03 -1.543980e-03
5.396000e+00 -5.250897e-02 -4.883515e-02 -1.013441e-01 2.891124e-02 -8.247203e-03 -1.498303e-03
5.400000e+00 1.535555e-02 -5.968006e-02 -4.432451e-02 -1.286162e-03 -8.261484e-03 -1.508352e-03
5.404000e+00 -2.469289e-02 -3.343022e-02 -5.812312e-02 -2.646182e-02 -8.296487e-03 -1.541191e-03
5.408000e+00 -9.669485e-02 -5.596235e-03 -1.022911e-01 -2.257944e-03 -8.293217e-03 -1.530229e-03
5.412000e+00 -8.402457e-02 -9.345501e-03 -9.337007e-02 1.430449e-02 -8.282447e-03 -1.534556e-03
5.416000e+00 -8.898601e-02 -1.240704e-02 -1.013930e-01 1.124134e-02 -8.286727e-03 -1.560183e-03
5.420000e+00 -1.196940e-01 -1.408328e-02 -1.337773e-01 9.941440e-03 -8.287976e-03 -1.552442e-03
5.424000e+00 -1.060841e-01 -2.656334e-02 -1.326475e-01 -2.063592e-02 -8.325576e-03 -1.537969e-03
5.428000e+00 -9.602708e-02 -1.416513e-02 -1.101922e-01 -2.189483e-02 -8.344664e-03 -1.528882e-03
5.432000e+00 -1.059577e-01 1.116062e-02 -9.479707e-02 3.961847e-02 -8.284274e-03 -1.523786e-03
5.436000e+00 -1.073472e-01 7.905039e-03 -9.944214e-02 4.103643e-02 -8.273841e-03 -1.539749e-03
5.440000e+00 -1.129075e-01 2.550615e-03 -1.103569e-01 9.264768e-03 -8.295814e-03 -1.533883e-03
5.444000e+00 -1.303493e-01 -1.001736e-02 -1.403667e-01 -1.115584e-02 -8.339952e-03 -1.535806e-03
5.448000e+00 -1.262572e-01 -2.525556e-02 -1.515127e-01 -2.416906e-02 -8.364762e-03 -1.557539e-03
5.452000e+00 -1.267723e-01 -1.025309e-02 -1.370254e-01 1.159377e-02 -8.300382e-03 -1.543451e-03
5.456000e+00 -9.085624e-02 3.204722e-03 -8.765152e-02 5.289173e-02 -8.242444e-03 -1.502245e-03
5.460000e+00 -4.895453e-02 6.190768e-04 -4.833545e-02 3.757191e-02 -8.252493e-03 -1.486138e-03
5.464000e+00 -9.072305e-02 5.065189e-03 -8.565786e-02 -3.379010e-03 -8.313171e-03 -1.500851e-03
5.468000e+00 -1.470668e-01 1.299267e-03 -1.457675e-01 -5.107103e-02 -8.390005e-03 -1.527488e-03
5.472000e+00 -1.719613e-01 -5.413300e-03 -1.773746e-01 -5.926823e-02 -8.408275e-03 -1.564174e-03
5.476000e+00 -1.905034e-01 -4.178815e-03 -1.946822e-01 -1.205309e-02 -8.366781e-03 -1.589609e-03
5.480000e+00 -2.031010e-01 -4.941895e-03 -2.080429e-01 1.228853e-02 -8.350338e-03 -1.571963e-03
5.484000e+00 -1.972717e-01 -4.947510e-03 -2.022192e-01 -6.533298e-03 -8.377504e-03 -1.560183e-03
5.488000e+00 -1.972295e-01 -8.178796e-03 -2.054083e-01 -2.195134e-02 -8.410150e-03 -1.576050e-03
5.492000e+00 -1.976595e-01 -2.621152e-02 -2.238710e-01 -2.882942e-02 -8.427748e-03 -1.577348e-03
5.496000e+00 -1.512284e-01 -3.761693e-02 -1.888453e-01 9.875673e-03 -8.382648e-03 -1.542393e-03
5.500000e+00 -1.103526e-01 -4.605876e-02 -1.564114e-01 2.536377e-02 -8.376301e-03 -1.548259e-03
5.504000e+00 -1.187082e-01 -5.217341e-02 -1.708817e-01 3.547911e-02 -8.382215e-03 -1.546239e-03
5.508000e+00 -1.486480e-01 -6.542828e-02 -2.140763e-01 3.455950e-02 -8.409333e-03 -1.512919e-03
5.512000e+00 -1.360298e-01 -6.217603e-02 -1.982058e-01 1.350715e-02 -8.430970e-03 -1.522920e-03
5.516000e+00 -1.881417e-01 -2.199148e-02 -2.101332e-01 4.907991e-03 -8.431499e-03 -1.547538e-03
5.520000e+00 -2.538990e-01 9.118680e-03 -2.447804e-01 -5.351775e-03 -8.452173e-03 -1.545422e-03
5.524000e+00 -2.794195e-01 1.261536e-02 -2.668041e-01 -3.513552e-02 -8.507756e-03 -1.565376e-03
5.528000e+00 -3.130660e-01 6.877241e-03 -3.061887e-01 -1.925332e-02 -8.530498e-03 -1.570857e-03
5.532000e+00 -2.917270e-01 -2.076027e-02 -3.124872e-01 1.518223e-02 -8.495302e-03 -1.557779e-03
5.536000e+00 -2.147762e-01 -3.370287e-02 -2.484790e-01 5.259877e-02 -8.420632e-03 -1.528690e-03
5.540000e+00 -1.907615e-01 -1.297833e-02 -2.037398e-01 5.381067e-02 -8.401833e-03 -1.498976e-03
5.544000e+00 -2.347606e-01 8.043734e-03 -2.267169e-01 -1.267762e-02 -8.492176e-03 -1.517872e-03
5.548000e+00 -2.912103e-01 1.266387e-02 -2.785465e-01 -5.318995e-02 -8.552711e-03 -1.548403e-03
5.552000e+00 -2.839057e-01 -6.855996e-03 -2.907617e-01 -2.111083e-02 -8.516602e-03 -1.544412e-03
5.556000e+00 -2.195170e-01 -3.340475e-02 -2.529218e-01 1.032877e-02 -8.480829e-03 -1.533738e-03
5.560000e+00 -2.335569e-01 -3.297773e-02 -2.665346e-01 -1.349175e-02 -8.517516e-03 -1.583022e-03
5.564000e+00 -3.141648e-01 -1.362092e-02 -3.277857e-01 -1.072182e-02 -8.526507e-03 -1.605187e-03
5.568000e+00 -2.785441e-01 -2.170985e-02 -3.002539e-01 2.753620e-02 -8.448760e-03 -1.546336e-03
5.572000e+00 -1.319283e-01 -3.649850e-02 -1.684268e-01 3.942422e-02 -8.376879e-03 -1.507054e-03
5.576000e+00 -8.997713e-02 -1.868777e-02 -1.086649e-01 -3.287532e-04 -8.390774e-03 -1.531767e-03
5.580000e+00 -1.637281e-01 9.283613e-03 -1.544445e-01 -4.935072e-02 -8.445971e-03 -1.559895e-03
5.584000e+00 -1.838613e-01 1.095982e-02 -1.729015e-01 -4.493065e-02 -8.458280e-03 -1.547393e-03
5.588000e+00 -1.333760e-01 -7.029201e-03 -1.404052e-01 4.874964e-04 -8.415439e-03 -1.558933e-03
5.592000e+00 -1.150411e-01 -1.004115e-02 -1.250823e-01 5.727919e-02 -8.335865e-03 -1.574655e-03
5.596000e+00 -1.039430e-01 -3.076297e-03 -1.070193e-01 5.566690e-02 -8.277736e-03 -1.546432e-03
5.600000e+00 -2.893428e-02 7.551433e-03 -2.138285e-02 3.785019e-03 -8.257685e-03 -1.522151e-03
5.604000e+00 2.980661e-03 1.790749e-02 2.088815e-02 -5.471714e-02 -8.311392e-03 -1.534844e-03
5.608000e+00 -2.880757e-02 1.611675e-02 -1.269082e-02 -7.220473e-02 -8.365483e-03 -1.563068e-03
5.612000e+00 -4.505189e-02 -1.961408e-03 -4.701330e-02 -2.269998e-02 -8.343077e-03 -1.566145e-03
5.616000e+00 -3.144595e-03 -2.476390e-02 -2.790849e-02 2.836499e-02 -8.286486e-03 -1.546143e-03
5.620000e+00 1.855421e-02 -1.415167e-02 4.402545e-03 4.047701e-02 -8.263792e-03 -1.526767e-03
5.624000e+00 -4.767943e-03 2.511493e-02 2.034699e-02 3.834824e-02 -8.252925e-03 -1.522680e-03
5.628000e+00 -2.616313e-02 3.837607e-02 1.221294e-02 -4.885750e-03 -8.268888e-03 -1.562827e-03
5.632000e+00 -1.985197e-02 2.875549e-02 8.903517e-03 -4.010826e-02 -8.267783e-03 -1.592205e-03
5.636000e+00 4.688884e-03 1.142642e-02 1.611531e-02 -3.276605e-02 -8.251627e-03 -1.578358e-03
5.640000e+00 4.342942e-02 -1.331109e-02 3.011833e-02 -2.926057e-02 -8.277207e-03 -1.565808e-03
5.644000e+00 3.424260e-02 -2.368291e-02 1.055969e-02 -4.015366e-02 -8.326441e-03 -1.578069e-03
5.648000e+00 -1.586062e-03 -1.366530e-02 -1.525136e-02 -7.931128e-03 -8.321441e-03 -1.575040e-03
5.652000e+00 1.593117e-03 -9.162662e-03 -7.569545e-03 3.516313e-02 -8.286246e-03 -1.558019e-03
5.656000e+00 1.515163e-02 -2.152479e-03 1.299915e-02 6.468002e-02 -8.258983e-03 -1.529700e-03
5.660000e+00 3.316131e-02 2.650825e-04 3.342639e-02 7.161998e-02 -8.227827e-03 -1.515323e-03
5.664000e+00 8.457626e-02 -1.458316e-02 6.999311e-02 5.178026e-02 -8.189025e-03 -1.515131e-03
5.668000e+00 1.090320e-01 -2.664923e-02 8.238280e-02 -3.146378e-02 -8.225615e-03 -1.559846e-03
5.672000e+00 3.800974e-02 3.378913e-03 4.138866e-02 -7.759867e-02 -8.289947e-03 -1.598984e-03
5.676000e+00 -5.174907e-02 2.765317e-02 -2.409590e-02 -5.465757e-02 -8.316633e-03 -1.602975e-03
5.680000e+00 -4.515597e-02 2.262202e-02 -2.253395e-02 4.154698e-03 -8.284562e-03 -1.560135e-03
5.684000e+00 -6.106071e-03 1.836220e-02 1.225613e-02 2.108166e-02 -8.278793e-03 -1.526526e-03
5.688000e+00 -3.615081e-02 2.266406e-02 -1.348675e-02 -3.112508e-02 -8.368800e-03 -1.577252e-03
5.692000e+00 -8.332045e-02 1.682595e-02 -6.649451e-02 -1.325001e-02 -8.353992e-03 -1.610620e-03
5.696000e+00 -1.287770e-02 -2.341693e-02 -3.629463e-02 7.199544e-02 -8.212585e-03 -1.564126e-03
5.700000e+00 1.181441e-01 -5.290581e-02 6.523831e-02 6.517450e-02 -8.175996e-03 -1.525613e-03
5.704000e+00 1.059894e-01 -2.512148e-02 8.086788e-02 8.210408e-03 -8.232924e-03 -1.546095e-03
5.708000e+00 -4.193532e-03 -1.871873e-03 -6.065404e-03 -4.147289e-02 -8.302112e-03 -1.597302e-03
5.712000e+00 -2.036921e-02 -4.795911e-03 -2.516513e-02 -7.542214e-02 -8.312305e-03 -1.603696e-03
5.716000e+00 7.497636e-03 9.472397e-03 1.697003e-02 -4.787185e-02 -8.296872e-03 -1.567732e-03
5.720000e+00 3.368537e-03 2.476937e-02 2.813790e-02 2.036372e-02 -8.302930e-03 -1.553644e-03
5.724000e+00 -3.014253e-02 1.547408e-02 -1.466846e-02 7.433394e-02 -8.280572e-03 -1.543258e-03
5.728000e+00 -4.080497e-02 -1.033859e-02 -5.114356e-02 2.209975e-02 -8.307690e-03 -1.577396e-03
5.732000e+00 -3.791340e-02 -1.521442e-02 -5.312783e-02 -2.860888e-02 -8.339568e-03 -1.593263e-03
5.736000e+00 -4.653674e-02 -1.542242e-02 -6.195916e-02 -3.671526e-03 -8.324807e-03 -1.567251e-03
5.740000e+00 -6.427877e-03 -1.289488e-02 -1.932276e-02 2.913124e-02 -8.280909e-03 -1.552346e-03
5.744000e+00 2.514668e-03 1.854057e-02 2.105524e-02 1.537939e-02 -8.257638e-03 -1.553019e-03
5.748000e+00 -4.108126e-02 4.258852e-02 1.507257e-03 -1.014877e-02 -8.305815e-03 -1.555183e-03
5.752000e+00 -5.843237e-02 1.467681e-02 -4.375556e-02 -9.839507e-03 -8.352261e-03 -1.560520e-03
5.756000e+00 -5.350241e-02 -2.776990e-02 -8.127231e-02 -2.440280e-04 -8.350818e-03 -1.570136e-03
5.760000e+00 -3.645251e-02 -2.914865e-02 -6.560116e-02 -1.271301e-02 -8.333653e-03 -1.576771e-03
5.764000e+00 -4.471131e-02 7.263345e-03 -3.744796e-02 -1.079357e-02 -8.321441e-03 -1.571626e-03
5.768000e+00 -6.527200e-02 2.970976e-02 -3.556223e-02 3.075603e-02 -8.302545e-03 -1.553067e-03
5.772000e+00 -4.573244e-02 1.456802e-02 -3.116441e-02 5.063795e-02 -8.276629e-03 -1.530902e-03
5.776000e+00 -2.355084e-02 -1.273494e-02 -3.628578e-02 -2.847121e-02 -8.335047e-03 -1.570761e-03
5.780000e+00 -6.230012e-02 -1.630549e-02 -7.860562e-02 -9.217243e-02 -8.413083e-03 -1.627737e-03
5.784000e+00 -1.271770e-01 -1.325298e-02 -1.404300e-01 -5.405220e-02 -8.420103e-03 -1.622833e-03
5.788000e+00 -9.111629e-02 -9.368000e-03 -1.004843e-01 3.535366e-02 -8.333461e-03 -1.571097e-03
5.792000e+00 -4.591099e-02 5.206551e-03 -4.070444e-02 3.884864e-02 -8.310623e-03 -1.570280e-03
5.796000e+00 -6.765082e-02 2.338688e-02 -4.426394e-02 1.218543e-02 -8.336875e-03 -1.590714e-03
5.800000e+00 -1.013526e-01 1.031579e-03 -1.003210e-01 -2.067930e-03 -8.371108e-03 -1.592349e-03
5.804000e+00 -5.618612e-02 -3.669451e-02 -9.288063e-02 -1.159427e-02 -8.368512e-03 -1.595282e-03
5.808000e+00 -9.828992e-03 -3.354144e-02 -4.337043e-02 6.707251e-03 -8.313748e-03 -1.580665e-03
5.812000e+00 -1.462074e-02 -1.065720e-02 -2.527794e-02 -1.477604e-02 -8.331634e-03 -1.604466e-03
5.816000e+00 -6.903025e-02 1.401476e-02 -5.501548e-02 -1.976686e-02 -8.367502e-03 -1.620381e-03
5.820000e+00 -1.180256e-01 1.380679e-02 -1.042188e-01 1.270130e-02 -8.365964e-03 -1.599513e-03
5.824000e+00 -5.133634e-02 -4.908493e-03 -5.624483e-02 5.278522e-02 -8.304660e-03 -1.559798e-03
5.828000e+00 1.351407e-03 -1.892135e-02 -1.756995e-02 9.941872e-03 -8.324807e-03 -1.565328e-03
5.832000e+00 -4.083141e-02 -4.276770e-03 -4.510818e-02 -3.791450e-02 -8.400342e-03 -1.592157e-03
5.836000e+00 -1.168834e-01 1.295032e-02 -1.039330e-01 -2.337914e-02 -8.417411e-03 -1.610043e-03
5.840000e+00 -1.092189e-01 1.292590e-02 -9.629297e-02 2.889026e-02 -8.346828e-03 -1.608120e-03
5.844000e+00 -6.994814e-02 1.997478e-03 -6.795067e-02 3.092522e-02 -8.326153e-03 -1.584849e-03
5.848000e+00 -5.050540e-02 -1.192845e-03 -5.169824e-02 5.342466e-03 -8.350049e-03 -1.591099e-03
5.852000e+00 -6.002599e-02 -3.491832e-05 -6.006091e-02 1.527877e-02 -8.330576e-03 -1.604369e-03
5.856000e+00 -5.939042e-02 -6.417951e-03 -6.580837e-02 -2.001531e-02 -8.341394e-03 -1.606677e-03
5.860000e+00 -4.841500e-02 3.549905e-03 -4.486509e-02 -6.129026e-02 -8.382360e-03 -1.611438e-03
5.864000e+00 -5.474872e-02 8.204564e-03 -4.654415e-02 -1.935180e-02 -8.370051e-03 -1.617303e-03
5.868000e+00 -3.695101e-02 -1.091932e-02 -4.787033e-02 3.904756e-02 -8.313219e-03 -1.604369e-03
5.872000e+00 -1.771223e-02 -1.491489e-02 -3.262711e-02 1.234242e-02 -8.317354e-03 -1.611726e-03
5.876000e+00 -6.320598e-02 1.474439e-03 -6.173154e-02 -3.811043e-02 -8.393082e-03 -1.643267e-03
5.880000e+00 -1.056597e-01 -7.870968e-03 -1.135307e-01 -2.054524e-02 -8.411353e-03 -1.634661e-03
5.884000e+00 -6.200610e-02 -2.918237e-02 -9.118847e-02 1.819975e-02 -8.366204e-03 -1.593455e-03
5.888000e+00 -2.272043e-02 -6.826862e-03 -2.954729e-02 5.870230e-03 -8.368224e-03 -1.590186e-03
5.892000e+00 -7.750989e-02 3.417016e-02 -4.333973e-02 5.655205e-03 -8.393226e-03 -1.613313e-03
5.896000e+00 -1.021059e-01 1.214278e-02 -8.996313e-02 4.517393e-02 -8.364569e-03 -1.612736e-03
5.900000e+00 -3.837876e-02 -4.515819e-02 -8.353695e-02 3.146634e-02 -8.348126e-03 -1.606918e-03
5.904000e+00 -1.146031e-02 -4.292160e-02 -5.438191e-02 -1.475672e-02 -8.364714e-03 -1.627785e-03
5.908000e+00 -5.629500e-02 -2.936386e-04 -5.658864e-02 -4.316803e-03 -8.344905e-03 -1.640575e-03
5.912000e+00 -8.363024e-02 1.248255e-02 -7.114768e-02 -2.098485e-02 -8.358704e-03 -1.639373e-03
5.916000e+00 -6.441424e-02 2.939004e-02 -3.502420e-02 -4.377816e-02 -8.362983e-03 -1.635286e-03
5.920000e+00 -6.314949e-02 4.743352e-02 -1.571597e-02 -7.274882e-03 -8.344567e-03 -1.625189e-03
5.924000e+00 -7.099825e-02 1.451429e-02 -5.648396e-02 -1.850955e-02 -8.407122e-03 -1.653989e-03
5.928000e+00 -1.021279e-01 -1.728760e-02 -1.194155e-01 -1.182669e-02 -8.448856e-03 -1.640142e-03
5.932000e+00 -8.402103e-02 -2.113255e-02 -1.051536e-01 6.459086e-02 -8.382215e-03 -1.562202e-03
5.936000e+00 2.144406e-02 -1.325433e-02 8.189733e-03 9.529169e-02 -8.297785e-03 -1.537345e-03
5.940000e+00 1.926223e-02 6.440852e-03 2.570308e-02 2.029436e-02 -8.334231e-03 -1.600379e-03
5.944000e+00 -6.539787e-02 1.363616e-02 -5.176172e-02 -1.670464e-02 -8.373273e-03 -1.636103e-03
5.948000e+00 -6.782723e-02 -2.652417e-02 -9.435140e-02 -1.376308e-02 -8.364811e-03 -1.642065e-03
5.952000e+00 -3.090182e-02 -4.445202e-02 -7.535383e-02 -3.901107e-02 -8.378706e-03 -1.642882e-03
5.956000e+00 -7.596275e-02 1.898704e-03 -7.406405e-02 -6.908047e-02 -8.424238e-03 -1.647114e-03
5.960000e+00 -1.337462e-01 4.422638e-02 -8.951984e-02 -3.028173e-02 -8.439864e-03 -1.623265e-03
5.964000e+00 -9.227839e-02 2.983548e-02 -6.244291e-02 4.003289e-02 -8.382408e-03 -1.581242e-03
5.968000e+00 -3.745036e-02 -9.184436e-04 -3.836881e-02 2.899108e-02 -8.375676e-03 -1.620092e-03
5.972000e+00 -4.955490e-02 -3.136253e-03 -5.269115e-02 2.061610e-02 -8.363464e-03 -1.644806e-03
5.976000e+00 -4.918778e-02 -1.780374e-02 -6.699152e-02 3.955544e-02 -8.319373e-03 -1.614851e-03
5.980000e+00 2.932859e-03 -3.468891e-02 -3.175605e-02 -8.187163e-03 -8.351203e-03 -1.622688e-03
5.984000e+00 -2.587367e-02 -3.151039e-03 -2.902471e-02 -6.046144e-02 -8.396736e-03 -1.644469e-03
5.988000e+00 -7.707670e-02 2.047341e-02 -5.660329e-02 -3.860740e-02 -8.404429e-03 -1.630045e-03
5.992000e+00 -1.711718e-02 -3.326856e-03 -2.044404e-02 2.058353e-02 -8.365820e-03 -1.584656e-03
5.996000e+00 2.382941e-02 -1.628644e-02 7.542968e-03 5.118562e-02 -8.339760e-03 -1.577973e-03
6.000000e+00 -2.467678e-02 -6.157556e-04 -2.529253e-02 2.822094e-02 -8.370051e-03 -1.616390e-03
6.004000e+00 -7.522328e-02 6.185876e-03 -6.903740e-02 -2.317859e-03 -8.381254e-03 -1.626246e-03
6.008000e+00 -4.683139e-02 -3.147506e-03 -4.997889e-02 -1.646301e-03 -8.352694e-03 -1.612687e-03
6.012000e+00 -1.541253e-02 -1.634517e-03 -1.704705e-02 -1.353122e-02 -8.364522e-03 -1.612928e-03
6.016000e+00 -5.810344e-02 1.891754e-02 -3.918590e-02 -3.824994e-02 -8.403996e-03 -1.641296e-03
6.020000e+00 -1.029034e-01 2.079633e-02 -8.210705e-02 -2.768036e-02 -8.421017e-03 -1.642113e-03
6.024000e+00 -5.847353e-02 -8.526630e-03 -6.700016e-02 1.421641e-03 -8.396639e-03 -1.604898e-03
6.028000e+00 -4.401205e-03 -1.853766e-02 -2.293886e-02 2.749564e-02 -8.372792e-03 -1.589416e-03
6.032000e+00 -2.794610e-02 -4.184982e-03 -3.213108e-02 1.290429e-02 -8.392937e-03 -1.628795e-03
6.036000e+00 -8.560698e-02 4.598115e-03 -8.100886e-02 -4.907057e-03 -8.403275e-03 -1.651777e-03
6.040000e+00 -7.676660e-02 -4.881467e-03 -8.164807e-02 -4.968289e-03 -8.383225e-03 -1.641200e-03
6.044000e+00 -5.719020e-02 -1.047302e-02 -6.766322e-02 -3.596872e-02 -8.426642e-03 -1.647787e-03
6.048000e+00 -8.335309e-02 2.281362e-03 -8.107173e-02 -4.659227e-02 -8.457751e-03 -1.669471e-03
6.052000e+00 -1.047762e-01 -7.155489e-04 -1.054917e-01 -3.630503e-03 -8.438711e-03 -1.654182e-03
6.056000e+00 -4.513840e-02 -1.745266e-02 -6.259106e-02 3.587879e-02 -8.391399e-03 -1.618842e-03
6.060000e+00 -2.640259e-02 -9.262699e-03 -3.566529e-02 3.565964e-02 -8.392745e-03 -1.621919e-03
6.064000e+00 -5.957841e-02 1.920296e-03 -5.765812e-02 2.880948e-02 -8.409381e-03 -1.624900e-03
6.068000e+00 -3.864653e-02 -1.890194e-02 -5.754848e-02 2.676550e-02 -8.383225e-03 -1.610957e-03
6.072000e+00 3.124866e-02 -3.363966e-02 -2.390993e-03 2.413150e-02 -8.344567e-03 -1.604658e-03
6.076000e+00 1.389383e-02 -7.001703e-03 6.892126e-03 -9.975665e-03 -8.374138e-03 -1.623025e-03
6.080000e+00 -8.992150e-02 3.323405e-02 -5.668745e-02 -4.656512e-02 -8.450923e-03 -1.651729e-03
6.084000e+00 -1.477919e-01 3.684785e-02 -1.109441e-01 -3.905827e-02 -8.478474e-03 -1.654855e-03
6.088000e+00 -1.143025e-01 8.872751e-03 -1.054297e-01 -1.382494e-02 -8.452462e-03 -1.658028e-03
6.092000e+00 -6.389099e-02 -5.532863e-03 -6.942385e-02 2.973276e-02 -8.400919e-03 -1.633218e-03
6.096000e+00 -4.673726e-02 -1.629464e-02 -6.303189e-02 2.031703e-02 -8.415824e-03 -1.624467e-03
6.100000e+00 -6.735236e-02 -1.781730e-02 -8.516965e-02 -2.422623e-02 -8.480300e-03 -1.650479e-03
6.104000e+00 -1.291892e-01 -3.309971e-03 -1.324992e-01 -2.961104e-02 -8.517900e-03 -1.646152e-03
6.108000e+00 -1.380929e-01 8.791798e-03 -1.293011e-01 8.327533e-03 -8.494292e-03 -1.634228e-03
6.112000e+00 -1.204467e-01 4.961245e-03 -1.154855e-01 2.417027e-02 -8.478089e-03 -1.647787e-03
6.116000e+00 -1.475874e-01 -1.052618e-02 -1.581136e-01 -2.437795e-02 -8.539393e-03 -1.675914e-03
6.120000e+00 -1.637415e-01 -1.350754e-02 -1.772490e-01 -1.202661e-02 -8.543143e-03 -1.657162e-03
6.124000e+00 -1.469798e-01 -2.209332e-02 -1.690731e-01 2.059016e-02 -8.527276e-03 -1.650816e-03
6.128000e+00 -1.280302e-01 -1.853643e-02 -1.465666e-01 4.053036e-02 -8.499052e-03 -1.648123e-03
6.132000e+00 -1.259397e-01 -8.439941e-03 -1.343797e-01 3.942221e-02 -8.463521e-03 -1.634420e-03
6.136000e+00 -1.045453e-01 -5.881383e-03 -1.104267e-01 -1.351936e-02 -8.495975e-03 -1.646104e-03
6.140000e+00 -1.167208e-01 9.752794e-03 -1.069680e-01 -3.977467e-02 -8.531651e-03 -1.644806e-03
6.144000e+00 -1.446697e-01 1.632067e-02 -1.283490e-01 -6.005418e-03 -8.528670e-03 -1.651681e-03
6.148000e+00 -1.333664e-01 3.583520e-03 -1.297829e-01 2.755008e-02 -8.495302e-03 -1.661298e-03
6.152000e+00 -1.360870e-01 1.752498e-03 -1.343345e-01 7.906157e-03 -8.489773e-03 -1.661057e-03
6.156000e+00 -1.056152e-01 1.439672e-02 -9.121845e-02 1.632539e-02 -8.453039e-03 -1.640671e-03
6.160000e+00 -5.742355e-02 -2.146901e-03 -5.957045e-02 9.772619e-03 -8.443278e-03 -1.640142e-03
6.164000e+00 -5.812174e-02 -1.823671e-02 -7.635845e-02 -4.962994e-02 -8.510351e-03 -1.676876e-03
6.168000e+00 -1.164804e-01 1.717331e-03 -1.147631e-01 -5.511952e-02 -8.540113e-03 -1.682117e-03
6.172000e+00 -1.113186e-01 1.450029e-02 -9.681827e-02 1.735112e-02 -8.474579e-03 -1.648075e-03
6.176000e+00 -1.789064e-02 5.992405e-03 -1.189824e-02 7.564844e-02 -8.371637e-03 -1.625093e-03
6.180000e+00 3.092914e-02 -2.935588e-03 2.799355e-02 4.756874e-02 -8.350434e-03 -1.640334e-03
6.184000e+00 1.241084e-02 -1.277039e-02 -3.595476e-04 -3.889103e-02 -8.419911e-03 -1.684280e-03
6.188000e+00 -3.119642e-02 -1.858679e-02 -4.978321e-02 -9.140073e-02 -8.486503e-03 -1.712504e-03
6.192000e+00 -4.062599e-02 -4.557291e-03 -4.518329e-02 -4.628878e-02 -8.460443e-03 -1.687694e-03
6.196000e+00 -1.412824e-02 1.291531e-02 -1.212928e-03 2.075769e-02 -8.413852e-03 -1.647306e-03
6.200000e+00 5.129470e-03 2.370390e-02 2.883337e-02 4.900106e-02 -8.402362e-03 -1.618025e-03
6.204000e+00 -3.349604e-03 1.586633e-02 1.251672e-02 7.085119e-03 -8.437749e-03 -1.663461e-03
6.208000e+00 -2.972694e-02 -8.280242e-03 -3.800718e-02 -3.527482e-02 -8.479243e-03 -1.715389e-03
6.212000e+00 -5.787398e-02 -3.638384e-02 -9.425782e-02 -4.907192e-02 -8.514006e-03 -1.732313e-03
6.216000e+00 -4.221702e-02 -2.776843e-02 -6.998545e-02 4.616514e-02 -8.436451e-03 -1.667067e-03
6.220000e+00 7.979673e-03 -8.051601e-03 -7.192774e-05 9.718597e-02 -8.369522e-03 -1.591580e-03
6.224000e+00 5.555180e-02 1.152105e-02 6.707284e-02 1.254373e-02 -8.409574e-03 -1.625670e-03
6.228000e+00 6.445606e-03 2.464316e-02 3.108877e-02 -3.572657e-02 -8.458809e-03 -1.666154e-03
6.232000e+00 -1.211076e-02 -6.282334e-03 -1.839310e-02 7.423746e-04 -8.441259e-03 -1.661923e-03
6.236000e+00 1.868948e-02 -3.323442e-02 -1.454495e-02 1.180817e-02 -8.425488e-03 -1.679761e-03
6.240000e+00 -4.210607e-02 2.315242e-03 -3.979083e-02 -2.105170e-02 -8.464434e-03 -1.688463e-03
6.244000e+00 -1.344808e-01 4.381277e-02 -9.066803e-02 -6.751013e-02 -8.548288e-03 -1.705340e-03
6.248000e+00 -1.750155e-01 3.894315e-02 -1.360724e-01 -5.902830e-02 -8.615023e-03 -1.693223e-03
6.252000e+00 -1.243556e-01 -1.416755e-03 -1.257723e-01 2.644732e-02 -8.560452e-03 -1.640382e-03
6.256000e+00 -2.430526e-02 -3.361571e-02 -5.792097e-02 1.042273e-01 -8.465973e-03 -1.604754e-03
6.260000e+00 -3.107603e-02 -3.200341e-02 -6.307944e-02 2.684600e-02 -8.537997e-03 -1.654374e-03
6.264000e+00 -2.155356e-01 -5.938488e-04 -2.161295e-01 -8.104440e-02 -8.738688e-03 -1.702022e-03
6.268000e+00 -3.917296e-01 -8.663542e-03 -4.003931e-01 -1.050426e-01 -8.921348e-03 -1.701397e-03
6.272000e+00 -4.433449e-01 -4.463985e-02 -4.879848e-01 -5.672326e-02 -9.004384e-03 -1.677453e-03
6.276000e+00 -4.240207e-01 -3.972225e-02 -4.637429e-01 5.197049e-02 -8.915002e-03 -1.672452e-03
6.280000e+00 -3.202345e-01 -1.098306e-02 -3.312176e-01 2.176639e-01 -8.606081e-03 -1.680338e-03
6.284000e+00 -1.600399e-01 -2.868382e-02 -1.887237e-01 2.286079e-01 -8.370051e-03 -1.697791e-03
6.288000e+00 1.636805e-03 -3.574890e-02 -3.411210e-02 9.496486e-02 -8.262494e-03 -1.704042e-03
6.292000e+00 1.245661e-01 -4.863009e-03 1.197031e-01 -1.946222e-03 -8.177678e-03 -1.658845e-03
6.296000e+00 2.780329e-01 2.421518e-02 3.022481e-01 -1.189016e-01 -8.145752e-03 -1.667981e-03
6.300000e+00 3.234998e-01 1.039857e-01 4.274855e-01 -1.839043e-01 -8.144503e-03 -1.680915e-03
6.304000e+00 2.644069e-01 1.672047e-01 4.316116e-01 -1.515542e-01 -8.182150e-03 -1.663173e-03
6.308000e+00 2.324158e-01 1.258489e-01 3.582647e-01 -1.054115e-01 -8.280813e-03 -1.686877e-03
6.312000e+00 1.743172e-01 5.826148e-02 2.325787e-01 -3.615144e-02 -8.333413e-03 -1.701301e-03
6.316000e+00 1.356267e-01 7.411660e-03 1.430383e-01 5.232667e-02 -8.326345e-03 -1.654807e-03
6.320000e+00 1.559532e-01 -3.312727e-02 1.228259e-01 5.146974e-02 -8.370243e-03 -1.647931e-03
6.324000e+00 9.952545e-02 -2.445850e-02 7.506695e-02 2.054572e-02 -8.434865e-03 -1.651393e-03
6.328000e+00 5.127902e-02 -2.641959e-02 2.485942e-02 -1.815460e-02 -8.483859e-03 -1.670000e-03
6.332000e+00 7.120565e-02 -6.031855e-02 1.088710e-02 -3.952363e-02 -8.523189e-03 -1.701638e-03
6.336000e+00 4.709728e-02 -8.581204e-02 -3.871477e-02 2.093343e-03 -8.540594e-03 -1.703465e-03
6.340000e+00 -9.383655e-03 -9.114600e-02 -1.005297e-01 8.220212e-02 -8.537036e-03 -1.658605e-03
6.344000e+00 -3.113470e-02 -7.922826e-02 -1.103630e-01 9.089716e-02 -8.540498e-03 -1.621631e-03
6.348000e+00 -4.976824e-02 -3.511338e-02 -8.488163e-02 4.410237e-02 -8.550595e-03 -1.622208e-03
6.352000e+00 -6.747149e-02 1.025267e-03 -6.644622e-02 -1.056782e-03 -8.548095e-03 -1.670048e-03
6.356000e+00 -1.004499e-01 1.147000e-02 -8.897991e-02 -1.715765e-02 -8.548768e-03 -1.694329e-03
6.360000e+00 -1.138908e-01 2.064078e-02 -9.325003e-02 -1.328983e-02 -8.535161e-03 -1.686781e-03
6.364000e+00 -1.233946e-01 4.530542e-02 -7.808915e-02 8.481119e-03 -8.527132e-03 -1.664279e-03
6.368000e+00 -1.400793e-01 5.629571e-02 -8.378358e-02 3.381697e-03 -8.557663e-03 -1.653605e-03
6.372000e+00 -1.429062e-01 3.967291e-02 -1.032333e-01 -1.523897e-02 -8.581704e-03 -1.676395e-03
6.376000e+00 -1.023811e-01 4.816836e-03 -9.756422e-02 -6.551425e-03 -8.547181e-03 -1.670048e-03
6.380000e+00 -4.719151e-02 -1.905922e-02 -6.625073e-02 -3.544413e-02 -8.555018e-03 -1.666683e-03
6.384000e+00 -7.351605e-02 1.146631e-02 -6.204973e-02 -4.384228e-02 -8.607235e-03 -1.673654e-03
6.388000e+00 -1.459585e-01 2.703125e-02 -1.189273e-01 5.227763e-03 -8.613341e-03 -1.692310e-03
6.392000e+00 -1.195125e-01 -2.469746e-02 -1.442100e-01 6.273062e-02 -8.549585e-03 -1.683848e-03
6.396000e+00 7.964535e-04 -8.384653e-02 -8.305007e-02 5.423966e-02 -8.482994e-03 -1.647835e-03
6.400000e+00 7.167758e-02 -7.131281e-02 3.647654e-04 1.666734e-02 -8.477512e-03 -1.614178e-03
6.404000e+00 2.003540e-02 -1.363349e-02 6.401907e-03 -4.874806e-02 -8.560692e-03 -1.642642e-03
6.408000e+00 -1.002929e-01 4.320158e-02 -5.709135e-02 -6.561831e-02 -8.623053e-03 -1.672116e-03
6.412000e+00 -1.277913e-01 4.329489e-02 -8.449643e-02 2.464804e-03 -8.577136e-03 -1.652547e-03
6.416000e+00 -6.009157e-02 -7.362501e-03 -6.745407e-02 4.786568e-02 -8.543191e-03 -1.639228e-03
6.420000e+00 -7.362524e-02 -3.707661e-02 -1.107019e-01 -1.679984e-02 -8.630843e-03 -1.688463e-03
6.424000e+00 -1.607384e-01 -2.164480e-02 -1.823832e-01 -3.972208e-02 -8.674164e-03 -1.697070e-03
6.428000e+00 -1.034674e-01 -2.716029e-02 -1.306277e-01 4.054850e-02 -8.562183e-03 -1.621102e-03
6.432000e+00 3.457732e-02 -3.429780e-02 2.795241e-04 6.040455e-02 -8.491504e-03 -1.597398e-03
6.436000e+00 8.173404e-04 1.872212e-02 1.953946e-02 8.699132e-03 -8.530113e-03 -1.644662e-03
6.440000e+00 -1.185771e-01 4.383426e-02 -7.474279e-02 -1.906664e-02 -8.581223e-03 -1.662211e-03
6.444000e+00 -1.047186e-01 -1.746390e-02 -1.221825e-01 -6.346768e-02 -8.645508e-03 -1.676395e-03
6.448000e+00 -8.095900e-02 -4.485403e-02 -1.258130e-01 -7.318783e-02 -8.686905e-03 -1.680193e-03
6.452000e+00 -1.264656e-01 -1.352754e-02 -1.399931e-01 -2.296947e-02 -8.669452e-03 -1.691108e-03
6.456000e+00 -1.702895e-01 1.993194e-02 -1.503576e-01 1.911590e-02 -8.645892e-03 -1.690627e-03
6.460000e+00 -1.844760e-01 4.014555e-02 -1.443305e-01 2.630727e-02 -8.639016e-03 -1.661153e-03
6.464000e+00 -1.313265e-01 2.915073e-02 -1.021758e-01 5.791605e-02 -8.591416e-03 -1.647402e-03
6.468000e+00 -8.412037e-02 -2.894468e-02 -1.130650e-01 1.058348e-02 -8.632141e-03 -1.680626e-03
6.472000e+00 -9.318754e-02 -4.926940e-02 -1.424569e-01 -6.516066e-02 -8.697723e-03 -1.699762e-03
6.476000e+00 -1.141425e-01 -2.340578e-02 -1.375483e-01 -3.273473e-02 -8.683396e-03 -1.676106e-03
6.480000e+00 -8.575801e-02 -1.669176e-02 -1.024498e-01 2.320981e-02 -8.648873e-03 -1.669808e-03
6.484000e+00 -1.188701e-01 -4.286469e-03 -1.231566e-01 1.944478e-02 -8.669115e-03 -1.688127e-03
6.488000e+00 -1.870423e-01 7.348080e-03 -1.796942e-01 -7.063632e-03 -8.717437e-03 -1.705869e-03
6.492000e+00 -1.543619e-01 -2.603741e-02 -1.803993e-01 1.784068e-02 -8.694069e-03 -1.671923e-03
6.496000e+00 -7.530894e-02 -8.353449e-02 -1.588434e-01 3.751835e-03 -8.716956e-03 -1.657547e-03
6.500000e+00 -7.605533e-02 -7.863294e-02 -1.546883e-01 -2.097609e-02 -8.764075e-03 -1.680963e-03
6.504000e+00 -1.591263e-01 -3.995977e-02 -1.990860e-01 5.347103e-03 -8.757585e-03 -1.690002e-03
6.508000e+00 -1.805525e-01 -2.517225e-02 -2.057248e-01 2.465085e-02 -8.740612e-03 -1.681684e-03
6.512000e+00 -1.853794e-01 1.376034e-03 -1.840034e-01 1.195031e-02 -8.738688e-03 -1.692694e-03
6.516000e+00 -2.209244e-01 3.235716e-02 -1.885672e-01 3.328228e-02 -8.718061e-03 -1.685146e-03
6.520000e+00 -2.027386e-01 3.407278e-03 -1.993313e-01 3.328757e-03 -8.747536e-03 -1.677741e-03
6.524000e+00 -1.890379e-01 -1.880618e-02 -2.078441e-01 -7.077532e-02 -8.835812e-03 -1.701638e-03
6.528000e+00 -2.414567e-01 -6.614075e-03 -2.480708e-01 -6.275497e-02 -8.886538e-03 -1.707696e-03
6.532000e+00 -2.328968e-01 -2.787479e-02 -2.607716e-01 1.929159e-02 -8.839515e-03 -1.694473e-03
6.536000e+00 -1.919796e-01 -5.106199e-02 -2.430416e-01 5.011608e-02 -8.793934e-03 -1.709042e-03
6.540000e+00 -2.507798e-01 -1.759013e-02 -2.683699e-01 -2.428180e-03 -8.847448e-03 -1.731929e-03
6.544000e+00 -3.144858e-01 1.880391e-02 -2.956819e-01 3.623956e-04 -8.876345e-03 -1.688223e-03
6.548000e+00 -2.385154e-01 -1.548088e-02 -2.539963e-01 4.776502e-02 -8.832303e-03 -1.648556e-03
6.552000e+00 -1.412612e-01 -4.857129e-02 -1.898325e-01 2.889519e-02 -8.797107e-03 -1.692406e-03
6.556000e+00 -1.737676e-01 -2.318362e-02 -1.969512e-01 -3.409669e-02 -8.801290e-03 -1.763758e-03
6.560000e+00 -2.184326e-01 -9.478173e-03 -2.279108e-01 -3.543074e-02 -8.810041e-03 -1.742987e-03
6.564000e+00 -1.731089e-01 -4.396441e-02 -2.170733e-01 -3.127203e-02 -8.842544e-03 -1.721399e-03
6.568000e+00 -1.506066e-01 -4.043576e-02 -1.910423e-01 1.052862e-02 -8.823840e-03 -1.709330e-03
6.572000e+00 -1.644953e-01 -1.865975e-02 -1.831551e-01 2.666361e-02 -8.792876e-03 -1.702888e-03
6.576000e+00 -1.433230e-01 8.049931e-03 -1.352731e-01 1.417386e-02 -8.767393e-03 -1.702359e-03
6.580000e+00 -1.404979e-01 3.715528e-02 -1.033426e-01 1.748507e-02 -8.748594e-03 -1.685050e-03
6.584000e+00 -1.042799e-01 2.844619e-02 -7.583374e-02 3.338629e-02 -8.721380e-03 -1.676635e-03
6.588000e+00 -6.364607e-02 -1.064243e-02 -7.428850e-02 -3.343423e-04 -8.736429e-03 -1.716062e-03
6.592000e+00 -6.952400e-02 -1.963053e-02 -8.915453e-02 -2.006228e-02 -8.734457e-03 -1.734621e-03
6.596000e+00 -7.123866e-02 -4.835857e-03 -7.607452e-02 -4.308353e-03 -8.697676e-03 -1.720293e-03
6.600000e+00 -3.765332e-02 1.669609e-02 -2.095723e-02 3.098086e-03 -8.669307e-03 -1.701878e-03
6.604000e+00 -5.221169e-02 3.481179e-02 -1.739990e-02 -4.987334e-02 -8.730178e-03 -1.723274e-03
6.608000e+00 -5.964831e-02 3.610852e-02 -2.353979e-02 -3.221511e-02 -8.728928e-03 -1.718033e-03
6.612000e+00 1.328453e-02 -7.852744e-04 1.249926e-02 5.289847e-02 -8.636517e-03 -1.660817e-03
6.616000e+00 9.689232e-02 -2.455175e-02 7.234057e-02 4.103548e-02 -8.626179e-03 -1.673606e-03
6.620000e+00 4.318272e-02 1.026291e-02 5.344563e-02 -1.597287e-02 -8.657480e-03 -1.755152e-03
6.624000e+00 -2.617056e-03 1.831944e-02 1.570239e-02 2.634909e-02 -8.579108e-03 -1.731448e-03
6.628000e+00 1.349360e-01 -2.595775e-02 1.089782e-01 2.317210e-02 -8.505111e-03 -1.686011e-03
6.632000e+00 2.014940e-01 1.687496e-02 2.183690e-01 -3.772711e-02 -8.515833e-03 -1.709475e-03
6.636000e+00 9.976355e-02 8.010774e-02 1.798713e-01 -5.421931e-02 -8.568673e-03 -1.716591e-03
6.640000e+00 8.669850e-02 2.936912e-02 1.160676e-01 -6.066158e-02 -8.638824e-03 -1.716350e-03
6.644000e+00 1.240551e-01 -2.278812e-02 1.012670e-01 -3.564974e-02 -8.656566e-03 -1.718851e-03
6.648000e+00 8.936246e-02 -8.132870e-03 8.122959e-02 8.609254e-03 -8.632814e-03 -1.734188e-03
6.652000e+00 6.695929e-02 1.133285e-02 7.829214e-02 3.078087e-02 -8.596464e-03 -1.750969e-03
6.656000e+00 7.263788e-02 9.278039e-03 8.191592e-02 3.285951e-02 -8.579492e-03 -1.724957e-03
6.660000e+00 1.227070e-01 2.903738e-03 1.256107e-01 4.826559e-02 -8.549585e-03 -1.687838e-03
6.664000e+00 1.538684e-01 -9.200655e-04 1.529483e-01 3.012813e-02 -8.555596e-03 -1.692887e-03
6.668000e+00 1.263188e-01 1.065445e-02 1.369733e-01 -3.035436e-02 -8.602523e-03 -1.722457e-03
6.672000e+00 6.950703e-02 2.039958e-02 8.990661e-02 -7.607637e-02 -8.671135e-03 -1.753325e-03
6.676000e+00 4.924971e-02 7.902508e-03 5.715221e-02 -5.135219e-02 -8.688443e-03 -1.768807e-03
6.680000e+00 5.453823e-02 -8.125022e-03 4.641321e-02 2.079629e-02 -8.636997e-03 -1.755584e-03
6.684000e+00 1.072804e-01 -1.117870e-02 9.610168e-02 9.479637e-02 -8.538526e-03 -1.703224e-03
6.688000e+00 1.720739e-01 -2.372640e-02 1.483475e-01 7.975001e-02 -8.521122e-03 -1.681155e-03
6.692000e+00 1.677277e-01 -2.278980e-02 1.449379e-01 5.677177e-03 -8.586127e-03 -1.701590e-03
6.696000e+00 7.356326e-02 8.937369e-03 8.250063e-02 -7.221615e-02 -8.674501e-03 -1.741689e-03
6.700000e+00 4.524606e-02 4.745663e-02 9.270269e-02 -3.794562e-02 -8.632189e-03 -1.717937e-03
6.704000e+00 1.222655e-01 3.482907e-02 1.570946e-01 3.213191e-02 -8.551605e-03 -1.683175e-03
6.708000e+00 1.618651e-01 5.898115e-03 1.677632e-01 3.661487e-02 -8.573915e-03 -1.705532e-03
6.712000e+00 6.893791e-02 -1.732550e-03 6.720536e-02 2.564166e-03 -8.642959e-03 -1.747699e-03
6.716000e+00 1.705768e-03 -1.642796e-02 -1.472219e-02 -1.720880e-02 -8.680702e-03 -1.739574e-03
6.720000e+00 4.889893e-02 -2.635364e-02 2.254529e-02 -3.612630e-02 -8.683203e-03 -1.707888e-03
6.724000e+00 6.511504e-02 5.976998e-03 7.109204e-02 -4.335513e-02 -8.695801e-03 -1.722889e-03
6.728000e+00 1.899652e-02 3.623411e-02 5.523063e-02 -1.596993e-02 -8.686761e-03 -1.764528e-03
6.732000e+00 -2.455622e-02 1.874112e-02 -5.815105e-03 1.752228e-03 -8.686905e-03 -1.784481e-03
6.736000e+00 1.595822e-02 -8.100590e-03 7.857632e-03 6.781196e-02 -8.627909e-03 -1.702311e-03
6.740000e+00 1.439601e-01 -4.102657e-02 1.029335e-01 1.183183e-01 -8.537277e-03 -1.633891e-03
6.744000e+00 2.220224e-01 -4.350917e-02 1.785133e-01 4.982528e-02 -8.535161e-03 -1.669616e-03
6.748000e+00 1.409670e-01 1.510229e-02 1.560693e-01 -6.537496e-02 -8.605167e-03 -1.707359e-03
6.752000e+00 6.949431e-02 5.987916e-02 1.293735e-01 -7.696517e-02 -8.636372e-03 -1.710052e-03
6.756000e+00 8.261579e-02 2.914726e-02 1.117631e-01 -3.569578e-02 -8.642382e-03 -1.740247e-03
6.760000e+00 4.366814e-02 -1.619948e-03 4.204819e-02 -1.899155e-02 -8.669067e-03 -1.758662e-03
6.764000e+00 -3.001274e-03 -1.240146e-03 -4.241421e-03 -1.280486e-02 -8.686521e-03 -1.747555e-03
6.768000e+00 4.078931e-02 -7.979319e-03 3.280999e-02 2.888384e-02 -8.637622e-03 -1.710484e-03
6.772000e+00 1.082123e-01 -1.265214e-02 9.556015e-02 4.018754e-02 -8.590358e-03 -1.685002e-03
6.776000e+00 1.052277e-01 2.621355e-02 1.314413e-01 -2.156684e-03 -8.612716e-03 -1.691685e-03
6.780000e+00 5.437872e-02 6.007856e-02 1.144573e-01 -1.447019e-02 -8.646517e-03 -1.692166e-03
6.784000e+00 5.013694e-02 2.684164e-02 7.697859e-02 1.710792e-02 -8.656374e-03 -1.678318e-03
6.788000e+00 1.028882e-01 -2.219018e-02 8.069803e-02 2.961702e-02 -8.622957e-03 -1.704330e-03
6.792000e+00 1.051183e-01 -3.289377e-02 7.222454e-02 5.291729e-03 -8.609495e-03 -1.729813e-03
6.796000e+00 9.538206e-02 -3.157009e-02 6.381197e-02 -3.232331e-02 -8.639545e-03 -1.720293e-03
6.800000e+00 8.350127e-02 -1.771180e-02 6.578948e-02 -3.791339e-02 -8.665509e-03 -1.729573e-03
6.804000e+00 2.126806e-02 2.088581e-02 4.215387e-02 -1.490379e-02 -8.675270e-03 -1.726928e-03
6.808000e+00 -2.013661e-04 4.837938e-02 4.817802e-02 -1.071668e-02 -8.656037e-03 -1.723322e-03
6.812000e+00 5.339196e-02 3.811201e-02 9.150397e-02 1.253557e-02 -8.614640e-03 -1.710484e-03
6.816000e+00 1.256768e-01 -1.101928e-02 1.146575e-01 2.868930e-02 -8.601417e-03 -1.685915e-03
6.820000e+00 1.466150e-01 -3.847610e-02 1.081389e-01 1.989725e-02 -8.624160e-03 -1.690338e-03
6.824000e+00 1.090529e-01 -1.687696e-02 9.217594e-02 1.923365e-02 -8.619351e-03 -1.700820e-03
6.828000e+00 6.683394e-02 8.230157e-03 7.506410e-02 -1.037590e-02 -8.633247e-03 -1.709090e-03
6.832000e+00 6.019783e-02 2.529892e-02 8.549676e-02 -2.866540e-02 -8.653585e-03 -1.699522e-03
6.836000e+00 6.117865e-02 2.510494e-02 8.628359e-02 -1.394502e-03 -8.653152e-03 -1.681059e-03
6.840000e+00 1.068970e-01 4.684703e-05 1.069439e-01 5.789072e-02 -8.596080e-03 -1.653028e-03
6.844000e+00 1.562295e-01 -3.947488e-02 1.167547e-01 3.507601e-02 -8.591705e-03 -1.669808e-03
6.848000e+00 1.361834e-01 -3.792700e-02 9.825642e-02 -3.490600e-02 -8.633439e-03 -1.734333e-03
6.852000e+00 5.165656e-02 6.425555e-03 5.808212e-02 -4.086185e-02 -8.622621e-03 -1.756450e-03
6.856000e+00 2.724786e-02 4.172705e-02 6.897492e-02 -2.493834e-02 -8.597330e-03 -1.731833e-03
6.860000e+00 6.748257e-02 5.582291e-02 1.233055e-01 -3.134608e-02 -8.595600e-03 -1.723851e-03
6.864000e+00 6.642060e-02 4.428721e-02 1.107078e-01 -4.085908e-02 -8.640795e-03 -1.729861e-03
6.868000e+00 6.409215e-02 9.349642e-03 7.344179e-02 -4.649200e-02 -8.683107e-03 -1.747603e-03
6.872000e+00 8.324333e-02 -1.602560e-02 6.721773e-02 1.182132e-02 -8.648152e-03 -1.718177e-03
6.876000e+00 1.429354e-01 -4.002014e-02 1.029152e-01 7.100011e-02 -8.589012e-03 -1.678751e-03
6.880000e+00 1.601366e-01 -4.085621e-02 1.192804e-01 3.674153e-02 -8.607811e-03 -1.715004e-03
6.884000e+00 7.256149e-02 -3.604816e-03 6.895667e-02 -2.402471e-02 -8.657335e-03 -1.760537e-03
6.888000e+00 3.220715e-02 1.247908e-02 4.468623e-02 -4.416843e-03 -8.641372e-03 -1.722601e-03
6.892000e+00 1.105717e-01 -1.696073e-02 9.361094e-02 1.387458e-02 -8.614880e-03 -1.724091e-03
6.896000e+00 1.258195e-01 -1.530628e-02 1.105132e-01 2.251675e-02 -8.593964e-03 -1.735487e-03
6.900000e+00 8.529335e-02 3.377591e-04 8.563111e-02 -9.058780e-03 -8.613582e-03 -1.723899e-03
6.904000e+00 1.053878e-01 9.115918e-03 1.145037e-01 -3.529048e-02 -8.634834e-03 -1.733996e-03
6.908000e+00 7.876776e-02 1.715851e-02 9.592627e-02 -2.116090e-02 -8.653345e-03 -1.751738e-03
6.912000e+00 3.261069e-02 2.110154e-02 5.371223e-02 1.537867e-02 -8.644594e-03 -1.749959e-03
6.916000e+00 4.907399e-02 1.687852e-02 6.595251e-02 5.064243e-02 -8.600359e-03 -1.702167e-03
6.920000e+00 1.255918e-01 6.447838e-03 1.320396e-01 3.801139e-02 -8.574155e-03 -1.677260e-03
6.924000e+00 1.548894e-01 4.211450e-03 1.591008e-01 2.671879e-03 -8.599446e-03 -1.698849e-03
6.928000e+00 1.069484e-01 1.677979e-04 1.071162e-01 -2.091783e-02 -8.639256e-03 -1.736160e-03
6.932000e+00 4.698140e-02 -4.735126e-03 4.224627e-02 -2.616767e-02 -8.667096e-03 -1.756979e-03
6.936000e+00 2.446584e-02 3.616524e-03 2.808236e-02 -1.444046e-02 -8.667816e-03 -1.729765e-03
6.940000e+00 5.900571e-02 1.904543e-02 7.805115e-02 2.772615e-02 -8.619207e-03 -1.683992e-03
6.944000e+00 1.157577e-01 1.333324e-02 1.290910e-01 3.961791e-02 -8.582137e-03 -1.704811e-03
6.948000e+00 1.180422e-01 -4.295667e-03 1.137466e-01 1.838240e-02 -8.584685e-03 -1.718995e-03
6.952000e+00 1.316894e-01 -2.356352e-02 1.081259e-01 4.982770e-03 -8.571943e-03 -1.700916e-03
6.956000e+00 1.632211e-01 -2.350215e-02 1.397190e-01 6.168680e-05 -8.572136e-03 -1.685098e-03
6.960000e+00 1.310875e-01 1.003837e-02 1.411259e-01 -2.317880e-02 -8.612572e-03 -1.677357e-03
6.964000e+00 7.013310e-02 4.297204e-02 1.131051e-01 -2.449561e-02 -8.640507e-03 -1.691685e-03
6.968000e+00 4.890649e-02 2.881650e-02 7.772299e-02 -1.714508e-02 -8.648969e-03 -1.722168e-03
6.972000e+00 5.192911e-02 8.968705e-03 6.089781e-02 -2.055765e-02 -8.627188e-03 -1.755008e-03
6.976000e+00 3.811712e-02 1.659871e-02 5.471584e-02 -8.155651e-03 -8.611659e-03 -1.749478e-03
6.980000e+00 3.814618e-02 7.172427e-03 4.531861e-02 -1.919262e-02 -8.650219e-03 -1.741112e-03
6.984000e+00 7.428018e-02 -1.353793e-02 6.074225e-02 1.923008e-02 -8.617428e-03 -1.708417e-03
6.988000e+00 1.402163e-01 -3.447848e-02 1.057378e-01 3.037904e-02 -8.570501e-03 -1.687742e-03
6.992000e+00 1.650832e-01 -1.408891e-02 1.509943e-01 -4.066303e-02 -8.605600e-03 -1.732121e-03
6.996000e+00 7.107938e-02 3.265549e-02 1.037349e-01 -5.110086e-02 -8.653874e-03 -1.752892e-03
7.000000e+00 2.822105e-02 2.119492e-02 4.941597e-02 1.915493e-02 -8.638873e-03 -1.728034e-03
7.004000e+00 7.182896e-02 -1.301956e-02 5.880939e-02 5.156933e-02 -8.612812e-03 -1.701926e-03
7.008000e+00 8.061641e-02 1.674242e-03 8.229065e-02 1.754528e-02 -8.621323e-03 -1.703657e-03
7.012000e+00 8.335396e-02 1.739015e-02 1.007441e-01 1.390243e-02 -8.602859e-03 -1.704907e-03
7.016000e+00 1.243085e-01 -1.894717e-02 1.053613e-01 1.765605e-02 -8.591705e-03 -1.698368e-03
7.020000e+00 1.475320e-01 -3.005759e-02 1.174744e-01 1.506313e-02 -8.587906e-03 -1.687886e-03
7.024000e+00 8.988813e-02 7.989250e-03 9.787738e-02 -1.633302e-02 -8.621707e-03 -1.723082e-03
7.028000e+00 4.408728e-02 4.132384e-02 8.541112e-02 1.818086e-03 -8.598677e-03 -1.707888e-03
7.032000e+00 7.107612e-02 1.653997e-02 8.761609e-02 -1.254169e-02 -8.605360e-03 -1.705244e-03
7.036000e+00 1.121661e-01 5.791164e-03 1.179572e-01 1.039341e-02 -8.593724e-03 -1.684424e-03
7.040000e+00 1.010432e-01 5.308390e-03 1.063516e-01 2.180329e-02 -8.582714e-03 -1.678799e-03
7.044000e+00 1.213491e-01 9.211006e-03 1.305601e-01 2.809216e-02 -8.551798e-03 -1.671202e-03
7.048000e+00 1.302998e-01 4.423417e-03 1.347232e-01 -2.888813e-02 -8.579155e-03 -1.700772e-03
7.052000e+00 9.688646e-02 9.928829e-03 1.068153e-01 -4.797271e-02 -8.618822e-03 -1.727073e-03
7.056000e+00 6.481927e-02 -3.742375e-03 6.107689e-02 -1.770662e-02 -8.622669e-03 -1.712696e-03
7.060000e+00 1.045122e-01 -1.938952e-02 8.512269e-02 2.067859e-02 -8.574828e-03 -1.689136e-03
7.064000e+00 1.365815e-01 -7.682921e-03 1.288985e-01 4.508807e-03 -8.554297e-03 -1.707167e-03
7.068000e+00 9.931931e-02 1.800271e-02 1.173220e-01 -2.850452e-02 -8.587137e-03 -1.722937e-03
7.072000e+00 7.636614e-02 1.112537e-02 8.749151e-02 -3.410622e-02 -8.609591e-03 -1.734862e-03
7.076000e+00 6.363495e-02 -1.250680e-02 5.112815e-02 -4.288427e-02 -8.651662e-03 -1.755008e-03
7.080000e+00 4.431211e-02 -1.767915e-03 4.254420e-02 -3.174693e-02 -8.649402e-03 -1.751834e-03
7.084000e+00 4.798457e-02 1.424025e-02 6.222482e-02 3.059325e-02 -8.602379e-03 -1.705628e-03
7.088000e+00 1.362652e-01 -7.412579e-03 1.288527e-01 8.204350e-02 -8.535209e-03 -1.669327e-03
7.092000e+00 1.756846e-01 -2.977502e-02 1.459096e-01 5.277722e-02 -8.536556e-03 -1.689377e-03
7.096000e+00 1.283408e-01 -1.846838e-02 1.098724e-01 -1.823098e-02 -8.594445e-03 -1.722120e-03
7.100000e+00 7.419880e-02 2.748402e-03 7.694720e-02 -4.226128e-02 -8.623631e-03 -1.724476e-03
7.104000e+00 7.198255e-02 1.229329e-02 8.427584e-02 -7.512455e-03 -8.606802e-03 -1.711494e-03
7.108000e+00 7.821111e-02 1.727617e-02 9.548729e-02 1.598595e-02 -8.585358e-03 -1.718418e-03
7.112000e+00 6.505892e-02 2.103230e-02 8.609122e-02 2.406889e-02 -8.572472e-03 -1.711542e-03
7.116000e+00 9.724984e-02 6.626978e-03 1.038768e-01 2.635439e-02 -8.550114e-03 -1.684953e-03
7.120000e+00 1.541512e-01 -6.016647e-03 1.481346e-01 2.408571e-02 -8.528190e-03 -1.669952e-03
7.124000e+00 1.356263e-01 4.105924e-03 1.397322e-01 -2.365708e-02 -8.578193e-03 -1.706446e-03
7.128000e+00 2.906291e-02 3.234687e-02 6.140978e-02 -6.947163e-02 -8.664259e-03 -1.749719e-03
7.132000e+00 -2.505903e-02 3.911491e-02 1.405588e-02 -2.428790e-02 -8.648633e-03 -1.727361e-03
7.136000e+00 2.729270e-02 4.931844e-03 3.222455e-02 2.161629e-02 -8.629400e-03 -1.674231e-03
7.140000e+00 9.629262e-02 -1.794736e-02 7.834526e-02 2.296192e-02 -8.633487e-03 -1.667260e-03
7.144000e+00 6.657872e-02 -2.392183e-02 4.265689e-02 1.647544e-02 -8.648969e-03 -1.716350e-03
7.148000e+00 2.053217e-02 -3.144010e-02 -1.090793e-02 3.549669e-03 -8.645844e-03 -1.753084e-03
7.152000e+00 -1.786455e-02 -1.572403e-02 -3.358857e-02 -3.551494e-02 -8.661662e-03 -1.768999e-03
7.156000e+00 -2.754741e-02 1.858446e-02 -8.962949e-03 -2.152164e-02 -8.652095e-03 -1.740006e-03
7.160000e+00 8.952925e-03 5.501053e-03 1.445398e-02 -7.312038e-03 -8.651806e-03 -1.716879e-03
7.164000e+00 7.110610e-02 -2.128491e-02 4.982119e-02 1.206778e-02 -8.636612e-03 -1.694425e-03
7.168000e+00 9.622387e-02 -2.738925e-02 6.883462e-02 2.869791e-02 -8.615216e-03 -1.686588e-03
7.172000e+00 6.535656e-02 -1.422532e-02 5.113123e-02 1.929600e-02 -8.641372e-03 -1.704570e-03
7.176000e+00 -7.652539e-03 7.819059e-03 1.665201e-04 -5.395803e-03 -8.682338e-03 -1.720485e-03
7.180000e+00 -3.779020e-02 2.249679e-02 -1.529342e-02 1.773171e-02 -8.658922e-03 -1.698801e-03
7.184000e+00 1.175059e-02 1.238250e-02 2.413308e-02 3.258680e-02 -8.624256e-03 -1.678751e-03
7.188000e+00 4.310643e-02 9.951528e-03 5.305796e-02 1.213715e-02 -8.623198e-03 -1.690387e-03
7.192000e+00 2.368698e-02 1.119571e-02 3.488269e-02 4.787894e-03 -8.632430e-03 -1.688079e-03
7.196000e+00 4.357241e-02 -7.409379e-03 3.616303e-02 1.016735e-02 -8.620409e-03 -1.672597e-03
7.200000e+00 6.734088e-02 -5.140015e-03 6.220086e-02 1.239807e-03 -8.601272e-03 -1.694425e-03
7.204000e+00 3.391942e-02 3.497664e-02 6.889606e-02 -4.273345e-03 -8.574973e-03 -1.711494e-03
7.208000e+00 2.512331e-02 4.930827e-02 7.443159e-02 -2.114890e-02 -8.561558e-03 -1.713081e-03
7.212000e+00 9.035764e-02 2.347774e-02 1.138354e-01 -2.247227e-02 -8.538864e-03 -1.708417e-03
7.216000e+00 1.561288e-01 -7.346716e-03 1.487821e-01 5.529055e-03 -8.498427e-03 -1.685434e-03
7.220000e+00 1.775790e-01 -1.654585e-02 1.610331e-01 -8.127279e-04 -8.507274e-03 -1.681011e-03
7.224000e+00 1.409997e-01 2.504615e-03 1.435043e-01 -5.691049e-02 -8.560211e-03 -1.734044e-03
7.228000e+00 8.140257e-02 2.203243e-02 1.034350e-01 -6.639261e-02 -8.571607e-03 -1.757412e-03
7.232000e+00 1.007202e-01 7.275737e-03 1.079960e-01 -3.330998e-02 -8.549153e-03 -1.734381e-03
7.236000e+00 1.348419e-01 -6.401682e-03 1.284402e-01 2.222493e-03 -8.556605e-03 -1.714139e-03
7.240000e+00 1.245259e-01 -7.962470e-03 1.165635e-01 5.150305e-02 -8.541027e-03 -1.693368e-03
7.244000e+00 1.582813e-01 -3.538010e-02 1.229012e-01 7.098199e-02 -8.492658e-03 -1.679232e-03
7.248000e+00 2.342566e-01 -5.545608e-02 1.788005e-01 2.441239e-02 -8.464819e-03 -1.694041e-03
7.252000e+00 2.092968e-01 -2.282967e-02 1.864671e-01 -2.889050e-02 -8.500255e-03 -1.715341e-03
7.256000e+00 1.450451e-01 2.060616e-02 1.656513e-01 -3.677244e-03 -8.499052e-03 -1.699570e-03
7.260000e+00 1.162041e-01 2.213845e-02 1.383426e-01 6.588986e-03 -8.523430e-03 -1.679857e-03
7.264000e+00 1.260830e-01 2.143253e-02 1.475155e-01 -5.573360e-03 -8.538767e-03 -1.681684e-03
7.268000e+00 1.148242e-01 1.911129e-02 1.339355e-01 1.342715e-02 -8.523814e-03 -1.688992e-03
7.272000e+00 1.347869e-01 -1.949774e-03 1.328371e-01 3.215857e-02 -8.491647e-03 -1.688415e-03
7.276000e+00 1.373098e-01 -2.843557e-03 1.344662e-01 1.202483e-03 -8.495783e-03 -1.700484e-03
7.280000e+00 9.413771e-02 2.687960e-02 1.210173e-01 -2.797445e-02 -8.533719e-03 -1.701974e-03
7.284000e+00 6.258636e-02 3.360117e-02 9.618753e-02 -3.118262e-02 -8.566558e-03 -1.700580e-03
7.288000e+00 5.555701e-02 1.328840e-02 6.884540e-02 -1.525618e-02 -8.587666e-03 -1.700436e-03
7.292000e+00 5.956082e-02 -1.541470e-03 5.801935e-02 3.681763e-03 -8.580406e-03 -1.690098e-03
7.296000e+00 7.431689e-02 -4.491367e-03 6.982552e-02 1.477334e-02 -8.557904e-03 -1.690531e-03
7.300000e+00 5.869913e-02 -9.293082e-03 4.940605e-02 -2.602905e-02 -8.608773e-03 -1.728996e-03
7.304000e+00 -5.027777e-02 -6.355149e-03 -5.663292e-02 -7.931435e-02 -8.748594e-03 -1.749238e-03
7.308000e+00 -1.925005e-01 -7.550565e-03 -2.000510e-01 -8.323121e-02 -8.911829e-03 -1.729092e-03
7.312000e+00 -2.800760e-01 -2.534781e-02 -3.054238e-01 -3.774675e-02 -9.023665e-03 -1.703417e-03
7.316000e+00 -3.079328e-01 -4.176051e-02 -3.496933e-01 4.957308e-02 -9.022607e-03 -1.665384e-03
7.320000e+00 -1.835449e-01 -5.283218e-02 -2.363771e-01 2.039845e-01 -8.761287e-03 -1.652499e-03
7.324000e+00 8.239816e-03 -7.443176e-02 -6.619195e-02 2.749666e-01 -8.452654e-03 -1.687983e-03
7.328000e+00 1.249701e-01 -5.495603e-02 7.001409e-02 1.581435e-01 -8.312210e-03 -1.708417e-03
7.332000e+00 1.786176e-01 2.062262e-02 1.992403e-01 3.180790e-02 -8.237058e-03 -1.674279e-03
7.336000e+00 3.191462e-01 6.552586e-02 3.846720e-01 -5.005364e-02 -8.143637e-03 -1.653941e-03
7.340000e+00 4.321976e-01 1.099745e-01 5.421721e-01 -1.725375e-01 -8.135367e-03 -1.675097e-03
7.344000e+00 3.724601e-01 1.927505e-01 5.652105e-01 -2.700878e-01 -8.256435e-03 -1.724380e-03
7.348000e+00 2.467556e-01 2.239950e-01 4.707506e-01 -2.015285e-01 -8.345193e-03 -1.751642e-03
7.352000e+00 2.132529e-01 1.330587e-01 3.463115e-01 -4.208991e-02 -8.351732e-03 -1.713369e-03
7.356000e+00 2.519400e-01 2.619478e-02 2.781348e-01 3.331955e-02 -8.384091e-03 -1.681588e-03
7.360000e+00 2.288262e-01 -9.612624e-03 2.192136e-01 5.812719e-02 -8.435201e-03 -1.670529e-03
7.364000e+00 2.180366e-01 -5.321573e-02 1.648208e-01 7.192479e-02 -8.434816e-03 -1.666346e-03
7.368000e+00 2.785082e-01 -9.598828e-02 1.825199e-01 3.610556e-02 -8.414334e-03 -1.672068e-03
7.372000e+00 2.635223e-01 -6.146231e-02 2.020600e-01 -3.061548e-02 -8.464530e-03 -1.685434e-03
7.376000e+00 1.722258e-01 -8.801144e-03 1.634246e-01 -3.760657e-03 -8.504486e-03 -1.681732e-03
7.380000e+00 9.973725e-02 -3.840947e-02 6.132778e-02 4.293121e-02 -8.556654e-03 -1.669327e-03
7.384000e+00 7.760349e-02 -7.307803e-02 4.525453e-03 3.546775e-02 -8.595407e-03 -1.659134e-03
7.388000e+00 5.046825e-02 -6.033467e-02 -9.866418e-03 1.729024e-02 -8.604879e-03 -1.671010e-03
7.392000e+00 7.945721e-02 -5.609802e-02 2.335919e-02 5.179972e-02 -8.527708e-03 -1.670433e-03
7.396000e+00 1.273451e-01 -5.654680e-02 7.079828e-02 6.777123e-02 -8.441066e-03 -1.656441e-03
7.400000e+00 1.011543e-01 7.507992e-03 1.086623e-01 1.166395e-02 -8.454048e-03 -1.663557e-03
7.404000e+00 -2.961350e-02 9.891798e-02 6.930447e-02 -6.250718e-02 -8.548768e-03 -1.697791e-03
7.408000e+00 -1.165519e-01 1.153749e-01 -1.176938e-03 -6.029694e-02 -8.591319e-03 -1.710725e-03
7.412000e+00 -4.999958e-02 5.406129e-02 4.061701e-03 -7.350094e-03 -8.536652e-03 -1.675914e-03
7.416000e+00 3.859739e-02 2.077036e-02 5.936775e-02 -1.343138e-02 -8.523237e-03 -1.668269e-03
7.420000e+00 9.999713e-03 5.111099e-02 6.111070e-02 -3.567226e-02 -8.571943e-03 -1.683126e-03
7.424000e+00 -3.774141e-02 3.448816e-02 -3.253250e-03 -1.662174e-02 -8.603244e-03 -1.697310e-03
7.428000e+00 1.763514e-02 -4.484855e-02 -2.721341e-02 4.117134e-02 -8.560885e-03 -1.684857e-03
7.432000e+00 7.702979e-02 -8.709295e-02 -1.006316e-02 5.607523e-02 -8.525209e-03 -1.660432e-03
7.436000e+00 5.641434e-02 -4.827261e-02 8.141731e-03 9.135043e-03 -8.550355e-03 -1.670962e-03
7.440000e+00 6.676315e-04 4.409223e-03 5.076854e-03 -2.231558e-02 -8.570885e-03 -1.670385e-03
7.444000e+00 2.608705e-03 1.612275e-02 1.873145e-02 -3.217889e-02 -8.564635e-03 -1.676876e-03
7.448000e+00 6.631227e-04 2.355008e-02 2.421320e-02 -3.578043e-02 -8.576078e-03 -1.716591e-03
7.452000e+00 -5.127100e-02 2.340312e-02 -2.786789e-02 -9.231874e-03 -8.583098e-03 -1.726159e-03
7.456000e+00 -3.061499e-02 -2.905631e-02 -5.967129e-02 3.146648e-02 -8.566799e-03 -1.687502e-03
7.460000e+00 8.017218e-02 -7.873135e-02 1.440826e-03 5.604121e-02 -8.516890e-03 -1.633507e-03
7.464000e+00 1.027415e-01 -5.933565e-02 4.340585e-02 -5.783205e-04 -8.549585e-03 -1.649614e-03
7.468000e+00 2.728106e-02 1.085547e-02 3.813653e-02 -3.262237e-02 -8.575309e-03 -1.679424e-03
7.472000e+00 -2.270676e-02 3.573092e-02 1.302416e-02 7.088664e-04 -8.544586e-03 -1.668654e-03
7.476000e+00 1.098419e-02 2.029687e-02 3.128105e-02 4.047024e-02 -8.523045e-03 -1.628987e-03
7.480000e+00 9.161809e-03 1.804413e-02 2.720594e-02 3.779976e-02 -8.548864e-03 -1.621342e-03
7.484000e+00 -3.747807e-02 9.843377e-03 -2.763469e-02 -1.582523e-03 -8.593387e-03 -1.677837e-03
7.488000e+00 -7.073477e-02 -1.325682e-02 -8.399159e-02 -6.954199e-02 -8.630650e-03 -1.733371e-03
7.492000e+00 -5.364056e-02 1.239115e-03 -5.240144e-02 -6.209171e-02 -8.574300e-03 -1.728803e-03
7.496000e+00 -2.886537e-02 3.224694e-02 3.381562e-03 2.710191e-03 -8.525833e-03 -1.690723e-03
7.500000e+00 -3.750614e-02 4.138603e-02 3.879891e-03 6.018651e-03 -8.563337e-03 -1.692598e-03
7.504000e+00 -8.476031e-02 2.767697e-02 -5.708334e-02 -2.440125e-02 -8.619544e-03 -1.721255e-03
7.508000e+00 -7.037062e-02 -1.880226e-02 -8.917288e-02 -4.471340e-02 -8.645027e-03 -1.726640e-03
7.512000e+00 -4.438802e-02 -4.309889e-02 -8.748692e-02 -6.810376e-02 -8.686184e-03 -1.748036e-03
7.516000e+00 -8.539049e-02 -1.268572e-02 -9.807621e-02 -6.500455e-03 -8.678443e-03 -1.728851e-03
7.520000e+00 -5.526633e-02 -1.948637e-02 -7.475270e-02 1.106484e-01 -8.573530e-03 -1.652643e-03
7.524000e+00 2.875013e-02 -5.203447e-02 -2.328434e-02 9.542253e-02 -8.562376e-03 -1.656105e-03
7.528000e+00 -1.013957e-02 -2.201986e-02 -3.215943e-02 2.461690e-02 -8.607139e-03 -1.696878e-03
7.532000e+00 -6.979973e-02 -2.645003e-02 -9.624976e-02 5.954310e-03 -8.620697e-03 -1.699907e-03
7.536000e+00 -3.204510e-02 -7.760176e-02 -1.096469e-01 -5.148769e-02 -8.684165e-03 -1.713850e-03
7.540000e+00 -8.350644e-02 -2.630704e-02 -1.098135e-01 -8.922121e-02 -8.732582e-03 -1.740968e-03
7.544000e+00 -1.681800e-01 3.773338e-02 -1.304466e-01 4.056832e-03 -8.689501e-03 -1.711061e-03
7.548000e+00 -1.008828e-01 -1.786704e-02 -1.187499e-01 6.595715e-02 -8.646854e-03 -1.694089e-03
