0.000000e+00 -1.983188e-05 0.000000e+00 7.883423e-08 -1.983188e-05
4.000000e-03 -1.362152e-04 -6.162595e-20 4.830133e-07 -1.362152e-04
8.000000e-03 -4.387350e-04 -1.669048e-17 1.302123e-06 -4.387350e-04
1.200000e-02 -8.987933e-04 -4.709321e-16 1.998843e-06 -8.987933e-04
1.600000e-02 -1.342809e-03 -3.456696e-15 1.786017e-06 -1.342809e-03
2.000000e-02 -1.585410e-03 -1.001250e-14 5.161041e-07 -1.585410e-03
2.400000e-02 -1.552293e-03 -1.503887e-14 -1.213455e-06 -1.552293e-03
2.800000e-02 -1.289553e-03 -1.497183e-14 -2.688325e-06 -1.289553e-03
3.200000e-02 -9.063953e-04 -1.277141e-14 -3.448626e-06 -9.063953e-04
3.600000e-02 -5.187083e-04 -9.514052e-15 -3.245929e-06 -5.187083e-04
4.000000e-02 -2.098349e-04 -1.082959e-15 -2.118741e-06 -2.098349e-04
4.400000e-02 -5.579608e-06 1.434245e-14 -5.769962e-07 -5.579608e-06
4.800000e-02 1.214730e-04 3.153687e-14 6.577993e-07 1.214730e-04
5.200000e-02 2.151351e-04 4.313574e-14 1.242874e-06 2.151351e-04
5.600000e-02 3.018270e-04 4.563846e-14 1.337508e-06 3.018270e-04
6.000000e-02 3.899540e-04 4.055211e-14 1.174479e-06 3.899540e-04
6.400000e-02 4.836039e-04 3.182738e-14 7.987812e-07 4.836039e-04
6.800000e-02 5.806804e-04 2.297232e-14 2.636183e-07 5.806804e-04
7.200000e-02 6.663763e-04 1.616198e-14 -1.585960e-07 6.663763e-04
7.600000e-02 7.256663e-04 1.275875e-14 -1.571094e-07 7.256663e-04
8.000000e-02 7.605057e-04 1.314246e-14 2.701488e-07 7.605057e-04
8.400000e-02 7.835712e-04 1.606178e-14 8.084127e-07 7.835712e-04
8.800000e-02 7.993360e-04 1.921443e-14 1.163953e-06 7.993360e-04
9.200000e-02 8.039991e-04 2.056713e-14 1.281507e-06 8.039991e-04
9.600000e-02 8.003289e-04 1.937372e-14 1.219662e-06 8.003289e-04
1.000000e-01 7.971220e-04 1.623916e-14 9.934380e-07 7.971220e-04
1.040000e-01 7.938824e-04 1.221218e-14 6.030000e-07 7.938824e-04
1.080000e-01 7.807545e-04 7.904006e-15 7.518106e-08 7.807545e-04
1.120000e-01 7.556903e-04 3.290745e-15 -5.008216e-07 7.556903e-04
1.160000e-01 7.278718e-04 -1.455085e-15 -9.303511e-07 7.278718e-04
1.200000e-01 7.010049e-04 -5.049009e-15 -1.058358e-06 7.010049e-04
1.240000e-01 6.671002e-04 -6.157369e-15 -9.556569e-07 6.671002e-04
1.280000e-01 6.220784e-04 -5.207716e-15 -8.189643e-07 6.220784e-04
1.320000e-01 5.744558e-04 -3.989178e-15 -7.014581e-07 5.744558e-04
1.360000e-01 5.315272e-04 -3.533390e-15 -4.373840e-07 5.315272e-04
1.400000e-01 4.888056e-04 -3.155657e-15 1.048877e-07 4.888056e-04
1.440000e-01 4.412070e-04 -1.775173e-15 7.605747e-07 4.412070e-04
1.480000e-01 3.937140e-04 4.383465e-16 1.222513e-06 3.937140e-04
1.520000e-01 3.514225e-04 2.176938e-15 1.350129e-06 3.514225e-04
1.560000e-01 3.085512e-04 2.280514e-15 1.102889e-06 3.085512e-04
1.600000e-01 2.584048e-04 -6.434951e-17 4.146929e-07 2.584048e-04
1.640000e-01 2.064886e-04 -5.599483e-15 -6.201979e-07 2.064886e-04
1.680000e-01 1.617329e-04 -1.365634e-14 -1.704614e-06 1.617329e-04
1.720000e-01 1.212447e-04 -2.157623e-14 -2.537719e-06 1.212447e-04
1.760000e-01 7.655272e-05 -2.652894e-14 -2.871915e-06 7.655272e-05
1.800000e-01 2.963673e-05 -2.706498e-14 -2.569494e-06 2.963673e-05
1.840000e-01 -1.084325e-05 -2.323903e-14 -1.748785e-06 -1.084325e-05
1.880000e-01 -4.571966e-05 -1.635236e-14 -7.056811e-07 -4.571966e-05
1.920000e-01 -8.365906e-05 -8.708901e-15 3.271724e-07 -8.365906e-05
1.960000e-01 -1.249015e-04 -2.680746e-15 1.259416e-06 -1.249015e-04
2.000000e-01 -1.609019e-04 5.712142e-16 2.074478e-06 -1.609019e-04
2.040000e-01 -1.907134e-04 1.343348e-15 2.761118e-06 -1.907134e-04
2.080000e-01 -2.234794e-04 2.673910e-16 3.246975e-06 -2.234794e-04
2.120000e-01 -2.618714e-04 -3.040389e-15 3.373505e-06 -2.618714e-04
2.160000e-01 -2.967918e-04 -9.802354e-15 2.999614e-06 -2.967918e-04
2.200000e-01 -3.229558e-04 -2.018862e-14 2.148969e-06 -3.229558e-04
2.240000e-01 -3.465614e-04 -3.227804e-14 9.831539e-07 -3.465614e-04
2.280000e-01 -3.717684e-04 -4.337377e-14 -3.535825e-07 -3.717684e-04
2.320000e-01 -3.921782e-04 -5.149243e-14 -1.720121e-06 -3.921782e-04
2.360000e-01 -4.032636e-04 -5.561038e-14 -2.871113e-06 -4.032636e-04
2.400000e-01 -4.119485e-04 -5.565747e-14 -3.518206e-06 -4.119485e-04
2.440000e-01 -4.244344e-04 -5.245751e-14 -3.424818e-06 -4.244344e-04
2.480000e-01 -4.340157e-04 -4.659739e-14 -2.504155e-06 -4.340157e-04
2.520000e-01 -4.314261e-04 -3.705390e-14 -1.061776e-06 -4.314261e-04
2.560000e-01 -4.191985e-04 -2.336557e-14 1.842053e-07 -4.191985e-04
2.600000e-01 -4.047722e-04 -9.347973e-15 6.319097e-07 -4.047722e-04
2.640000e-01 -3.866536e-04 -6.670109e-16 3.578297e-07 -3.866536e-04
2.680000e-01 -3.600894e-04 1.444931e-15 -1.352068e-08 -3.600894e-04
2.720000e-01 -3.309056e-04 1.442421e-15 3.596135e-08 -3.309056e-04
2.760000e-01 -3.096687e-04 4.498924e-15 5.809770e-07 -3.096687e-04
2.800000e-01 -2.955569e-04 1.185367e-14 1.366504e-06 -2.955569e-04
2.840000e-01 -2.797222e-04 2.075799e-14 1.902897e-06 -2.797222e-04
2.880000e-01 -2.620297e-04 2.658509e-14 1.713946e-06 -2.620297e-04
2.920000e-01 -2.506342e-04 2.526404e-14 8.079317e-07 -2.506342e-04
2.960000e-01 -2.461225e-04 1.596608e-14 -3.606345e-07 -2.461225e-04
3.000000e-01 -2.401414e-04 1.903989e-15 -1.392468e-06 -2.401414e-04
3.040000e-01 -2.308415e-04 -1.191889e-14 -2.020126e-06 -2.308415e-04
3.080000e-01 -2.259710e-04 -2.145919e-14 -1.899942e-06 -2.259710e-04
3.120000e-01 -2.274879e-04 -2.428484e-14 -8.762683e-07 -2.274879e-04
3.160000e-01 -2.262425e-04 -1.968621e-14 6.288529e-07 -2.262425e-04
3.200000e-01 -2.169656e-04 -9.979327e-15 1.875555e-06 -2.169656e-04
3.240000e-01 -2.063448e-04 -4.179309e-16 2.389478e-06 -2.063448e-04
3.280000e-01 -1.998902e-04 4.009643e-15 2.156848e-06 -1.998902e-04
3.320000e-01 -1.924270e-04 1.874307e-15 1.467566e-06 -1.924270e-04
3.360000e-01 -1.795617e-04 -4.002009e-15 6.792604e-07 -1.795617e-04
3.400000e-01 -1.677962e-04 -9.166846e-15 1.056288e-08 -1.677962e-04
3.440000e-01 -1.641306e-04 -1.135228e-14 -4.673306e-07 -1.641306e-04
3.480000e-01 -1.650715e-04 -1.134850e-14 -7.013224e-07 -1.650715e-04
3.520000e-01 -1.651395e-04 -1.072556e-14 -6.814668e-07 -1.651395e-04
3.560000e-01 -1.676016e-04 -1.049155e-14 -5.654188e-07 -1.676016e-04
3.600000e-01 -1.769952e-04 -1.200219e-14 -6.205049e-07 -1.769952e-04
3.640000e-01 -1.885314e-04 -1.700826e-14 -1.004060e-06 -1.885314e-04
3.680000e-01 -1.949836e-04 -2.574950e-14 -1.604394e-06 -1.949836e-04
3.720000e-01 -1.951182e-04 -3.590941e-14 -2.011015e-06 -1.951182e-04
3.760000e-01 -1.807363e-04 -4.319308e-14 -1.678079e-06 -1.807363e-04
3.800000e-01 -1.246849e-04 -4.129573e-14 -3.957172e-07 -1.246849e-04
3.840000e-01 -4.895653e-06 -2.278989e-14 1.282134e-06 -4.895653e-06
3.880000e-01 1.596783e-04 1.565734e-14 2.290682e-06 1.596783e-04
3.920000e-01 3.154699e-04 6.853912e-14 1.880434e-06 3.154699e-04
3.960000e-01 4.164814e-04 1.217454e-13 1.607611e-07 4.164814e-04
4.000000e-01 4.462971e-04 1.582332e-13 -1.998793e-06 4.462971e-04
4.040000e-01 4.063786e-04 1.684265e-13 -3.428386e-06 4.063786e-04
4.080000e-01 3.077380e-04 1.532516e-13 -3.329115e-06 3.077380e-04
4.120000e-01 1.784300e-04 1.175000e-13 -1.767271e-06 1.784300e-04
4.160000e-01 5.834539e-05 6.663753e-14 5.215626e-07 5.834539e-05
4.200000e-01 -2.639656e-05 8.865017e-15 2.689419e-06 -2.639656e-05
4.240000e-01 -7.624775e-05 -4.583544e-14 4.088318e-06 -7.624775e-05
4.280000e-01 -1.016354e-04 -8.989917e-14 4.377753e-06 -1.016354e-04
4.320000e-01 -1.063962e-04 -1.195506e-13 3.656707e-06 -1.063962e-04
4.360000e-01 -9.422295e-05 -1.325632e-13 2.428647e-06 -9.422295e-05
4.400000e-01 -7.703018e-05 -1.275537e-13 1.183709e-06 -7.703018e-05
4.440000e-01 -6.425932e-05 -1.061285e-13 3.657968e-08 -6.425931e-05
4.480000e-01 -5.205911e-05 -7.345108e-14 -1.063807e-06 -5.205911e-05
4.520000e-01 -3.373883e-05 -3.575646e-14 -1.965016e-06 -3.373883e-05
4.560000e-01 -1.363408e-05 1.366293e-15 -2.384173e-06 -1.363408e-05
4.600000e-01 5.084445e-07 3.227944e-14 -2.211184e-06 5.084444e-07
4.640000e-01 1.202012e-05 5.110603e-14 -1.657276e-06 1.202012e-05
4.680000e-01 2.912283e-05 5.389051e-14 -1.178944e-06 2.912283e-05
4.720000e-01 4.926666e-05 4.072635e-14 -1.123662e-06 4.926665e-05
4.760000e-01 6.339564e-05 1.595193e-14 -1.354516e-06 6.339564e-05
4.800000e-01 7.224063e-05 -1.232921e-14 -1.409486e-06 7.224063e-05
4.840000e-01 8.407285e-05 -3.352948e-14 -1.042896e-06 8.407285e-05
4.880000e-01 9.835892e-05 -3.855307e-14 -4.222406e-07 9.835892e-05
4.920000e-01 1.063254e-04 -2.502143e-14 1.197509e-07 1.063254e-04
4.960000e-01 1.076150e-04 1.415756e-15 3.845763e-07 1.076150e-04
5.000000e-01 1.119100e-04 3.172430e-14 4.807296e-07 1.119100e-04
5.040000e-01 1.221517e-04 5.917781e-14 7.240671e-07 1.221517e-04
5.080000e-01 1.298631e-04 8.048659e-14 1.260337e-06 1.298631e-04
5.120000e-01 1.306910e-04 9.367771e-14 1.900969e-06 1.306910e-04
5.160000e-01 1.315907e-04 9.783901e-14 2.371711e-06 1.315907e-04
5.200000e-01 1.369213e-04 9.454491e-14 2.490098e-06 1.369213e-04
5.240000e-01 1.396224e-04 8.673384e-14 2.159201e-06 1.396224e-04
5.280000e-01 1.342442e-04 7.564259e-14 1.467187e-06 1.342442e-04
5.320000e-01 1.276098e-04 6.061485e-14 7.029061e-07 1.276098e-04
5.360000e-01 1.269365e-04 4.166335e-14 5.768412e-08 1.269365e-04
5.400000e-01 1.275492e-04 1.983172e-14 -5.913564e-07 1.275492e-04
5.440000e-01 1.228025e-04 -4.474536e-15 -1.419308e-06 1.228025e-04
5.480000e-01 1.168515e-04 -3.050559e-14 -2.289703e-06 1.168515e-04
5.520000e-01 1.160385e-04 -5.433906e-14 -2.839144e-06 1.160385e-04
5.560000e-01 1.155936e-04 -6.986182e-14 -2.805733e-06 1.155936e-04
5.600000e-01 1.076176e-04 -7.363324e-14 -2.169813e-06 1.076176e-04
5.640000e-01 9.603404e-05 -6.782575e-14 -1.134546e-06 9.603404e-05
5.680000e-01 9.028124e-05 -5.776447e-14 -5.562803e-08 9.028124e-05
5.720000e-01 8.885450e-05 -4.806576e-14 7.257078e-07 8.885450e-05
5.760000e-01 8.278346e-05 -4.181212e-14 1.081580e-06 8.278346e-05
5.800000e-01 7.226412e-05 -4.029860e-14 1.114861e-06 7.226412e-05
5.840000e-01 6.573134e-05 -4.157803e-14 1.000513e-06 6.573134e-05
5.880000e-01 6.377346e-05 -4.073173e-14 8.853638e-07 6.377346e-05
5.920000e-01 5.825244e-05 -3.338987e-14 8.075463e-07 5.825244e-05
5.960000e-01 4.816705e-05 -1.917906e-14 5.839698e-07 4.816705e-05
6.000000e-01 4.248195e-05 -1.148064e-15 -7.868693e-10 4.248195e-05
6.040000e-01 4.431849e-05 1.773730e-14 -7.742322e-07 4.431849e-05
6.080000e-01 4.547805e-05 3.649961e-14 -1.193841e-06 4.547805e-05
6.120000e-01 4.114790e-05 5.520763e-14 -8.738540e-07 4.114790e-05
6.160000e-01 3.737861e-05 7.362794e-14 6.932341e-08 3.737861e-05
6.200000e-01 3.806386e-05 9.059126e-14 1.156259e-06 3.806386e-05
6.240000e-01 3.690017e-05 1.033394e-13 1.860062e-06 3.690017e-05
6.280000e-01 2.987916e-05 1.073683e-13 1.849188e-06 2.987916e-05
6.320000e-01 2.433320e-05 9.857128e-14 1.151930e-06 2.433320e-05
6.360000e-01 2.654306e-05 7.657069e-14 1.762033e-07 2.654306e-05
6.400000e-01 3.029174e-05 4.515540e-14 -5.743695e-07 3.029174e-05
6.440000e-01 2.776932e-05 9.195965e-15 -8.883235e-07 2.776932e-05
6.480000e-01 2.311950e-05 -2.740560e-14 -8.895540e-07 2.311950e-05
6.520000e-01 2.394025e-05 -6.074223e-14 -7.693689e-07 2.394025e-05
6.560000e-01 2.714900e-05 -8.609664e-14 -5.811917e-07 2.714900e-05
6.600000e-01 2.584216e-05 -9.965894e-14 -2.555007e-07 2.584216e-05
6.640000e-01 2.360744e-05 -1.006891e-13 2.082431e-07 2.360744e-05
6.680000e-01 2.826983e-05 -9.157373e-14 5.911585e-07 2.826983e-05
6.720000e-01 3.594037e-05 -7.661148e-14 5.915678e-07 3.594037e-05
6.760000e-01 3.548684e-05 -6.096628e-14 1.142542e-07 3.548684e-05
6.800000e-01 2.640002e-05 -4.888493e-14 -6.844375e-07 2.640002e-05
6.840000e-01 1.829885e-05 -4.087276e-14 -1.578624e-06 1.829885e-05
6.880000e-01 1.397254e-05 -3.300166e-14 -2.314141e-06 1.397254e-05
6.920000e-01 7.110639e-06 -2.020539e-14 -2.586358e-06 7.110639e-06
6.960000e-01 -2.726239e-06 -5.730900e-17 -2.194149e-06 -2.726239e-06
7.000000e-01 -7.450851e-06 2.658116e-14 -1.160708e-06 -7.450851e-06
7.040000e-01 -5.740212e-06 5.686543e-14 2.944007e-07 -5.740212e-06
7.080000e-01 -7.342833e-06 8.581263e-14 1.770749e-06 -7.342833e-06
7.120000e-01 -1.727530e-05 1.063886e-13 2.811090e-06 -1.727530e-05
7.160000e-01 -2.820383e-05 1.127919e-13 3.219615e-06 -2.820383e-05
7.200000e-01 -3.453517e-05 1.042376e-13 3.132442e-06 -3.453517e-05
7.240000e-01 -4.190481e-05 8.428212e-14 2.702486e-06 -4.190481e-05
7.280000e-01 -5.474754e-05 5.630432e-14 1.941214e-06 -5.474754e-05
7.320000e-01 -6.582902e-05 2.169889e-14 8.526006e-07 -6.582902e-05
7.360000e-01 -6.820749e-05 -1.793519e-14 -4.768175e-07 -6.820749e-05
7.400000e-01 -6.812155e-05 -5.919224e-14 -1.840406e-06 -6.812155e-05
7.440000e-01 -7.467272e-05 -9.741472e-14 -2.832113e-06 -7.467272e-05
7.480000e-01 -8.449870e-05 -1.268588e-13 -2.950315e-06 -8.449870e-05
7.520000e-01 -8.897285e-05 -1.403375e-13 -2.036737e-06 -8.897285e-05
7.560000e-01 -8.984450e-05 -1.316028e-13 -5.224200e-07 -8.984450e-05
7.600000e-01 -9.429839e-05 -1.002268e-13 9.434935e-07 -9.429839e-05
7.640000e-01 -9.998020e-05 -5.317380e-14 1.895992e-06 -9.998020e-05
7.680000e-01 -9.909715e-05 -1.465125e-15 2.076143e-06 -9.909715e-05
7.720000e-01 -9.383824e-05 4.334101e-14 1.433956e-06 -9.383824e-05
7.760000e-01 -9.352824e-05 7.073116e-14 2.118546e-07 -9.352824e-05
7.800000e-01 -9.814893e-05 7.358889e-14 -1.155600e-06 -9.814893e-05
7.840000e-01 -9.872142e-05 5.219580e-14 -2.270949e-06 -9.872142e-05
7.880000e-01 -9.371059e-05 1.532210e-14 -2.809339e-06 -9.371059e-05
7.920000e-01 -9.085860e-05 -2.423017e-14 -2.497919e-06 -9.085860e-05
7.960000e-01 -9.142038e-05 -5.486841e-14 -1.374901e-06 -9.142038e-05
8.000000e-01 -8.668353e-05 -6.886745e-14 6.475975e-08 -8.668353e-05
8.040000e-01 -7.385832e-05 -6.391501e-14 1.208847e-06 -7.385832e-05
8.080000e-01 -6.232166e-05 -4.425124e-14 1.699581e-06 -6.232166e-05
8.120000e-01 -5.841513e-05 -1.804795e-14 1.525902e-06 -5.841513e-05
8.160000e-01 -5.622376e-05 7.956505e-15 9.962688e-07 -5.622376e-05
8.200000e-01 -5.027288e-05 3.167454e-14 5.609561e-07 -5.027288e-05
8.240000e-01 -4.536047e-05 5.399407e-14 4.751627e-07 -4.536047e-05
8.280000e-01 -4.534451e-05 7.459521e-14 6.524262e-07 -4.534451e-05
8.320000e-01 -4.337217e-05 9.084028e-14 8.692459e-07 -4.337217e-05
8.360000e-01 -3.342109e-05 9.968225e-14 9.512731e-07 -3.342109e-05
8.400000e-01 -2.202480e-05 9.891614e-14 7.363548e-07 -2.202480e-05
8.440000e-01 -1.751047e-05 8.690671e-14 1.348621e-07 -1.751047e-05
8.480000e-01 -1.589462e-05 6.320490e-14 -6.828358e-07 -1.589462e-05
8.520000e-01 -9.203486e-06 3.041636e-14 -1.319278e-06 -9.203486e-06
8.560000e-01 -5.491609e-07 -5.844980e-15 -1.395948e-06 -5.491609e-07
8.600000e-01 1.838758e-06 -3.985428e-14 -8.082557e-07 1.838758e-06
8.640000e-01 1.826704e-07 -6.818489e-14 1.738922e-07 1.826704e-07
8.680000e-01 3.408997e-06 -8.933845e-14 1.109092e-06 3.408997e-06
8.720000e-01 1.108071e-05 -1.025617e-13 1.670074e-06 1.108071e-05
8.760000e-01 1.472489e-05 -1.081327e-13 1.675127e-06 1.472489e-05
8.800000e-01 1.394750e-05 -1.077198e-13 1.006488e-06 1.394750e-05
8.840000e-01 1.705120e-05 -1.025881e-13 -2.899654e-07 1.705120e-05
8.880000e-01 2.481256e-05 -9.137210e-14 -1.826156e-06 2.481256e-05
8.920000e-01 2.810948e-05 -7.063229e-14 -2.950332e-06 2.810948e-05
8.960000e-01 2.454279e-05 -3.778010e-14 -3.133208e-06 2.454279e-05
9.000000e-01 2.323763e-05 6.278769e-15 -2.329473e-06 2.323763e-05
9.040000e-01 2.855557e-05 5.623743e-14 -1.013170e-06 2.855557e-05
9.080000e-01 3.265923e-05 1.028488e-13 1.267741e-07 3.265923e-05
9.120000e-01 3.032820e-05 1.350356e-13 6.524102e-07 3.032820e-05
9.160000e-01 2.828402e-05 1.447413e-13 6.917757e-07 2.828402e-05
9.200000e-01 3.208692e-05 1.316597e-13 7.726305e-07 3.208692e-05
9.240000e-01 3.557412e-05 1.028064e-13 1.279219e-06 3.557412e-05
9.280000e-01 3.269324e-05 6.734336e-14 2.105514e-06 3.269324e-05
9.320000e-01 2.938427e-05 3.242497e-14 2.778994e-06 2.938427e-05
9.360000e-01 3.297483e-05 2.895274e-15 2.813459e-06 3.297483e-05
9.400000e-01 3.869321e-05 -1.798045e-14 2.023074e-06 3.869321e-05
9.440000e-01 3.840898e-05 -2.922257e-14 6.227576e-07 3.840898e-05
9.480000e-01 3.528463e-05 -3.249447e-14 -9.166795e-07 3.528463e-05
9.520000e-01 3.713454e-05 -3.043078e-14 -2.097865e-06 3.713454e-05
9.560000e-01 4.120909e-05 -2.535968e-14 -2.582570e-06 4.120909e-05
9.600000e-01 3.896898e-05 -1.992262e-14 -2.278608e-06 3.896898e-05
9.640000e-01 3.185570e-05 -1.725836e-14 -1.337242e-06 3.185570e-05
9.680000e-01 2.872653e-05 -1.942348e-14 -1.488258e-07 2.872653e-05
9.720000e-01 3.005658e-05 -2.644939e-14 7.692233e-07 3.005658e-05
9.760000e-01 2.846133e-05 -3.737560e-14 1.101100e-06 2.846133e-05
9.800000e-01 2.403201e-05 -5.070740e-14 9.040527e-07 2.403201e-05
9.840000e-01 2.486275e-05 -6.316296e-14 3.967824e-07 2.486275e-05
9.880000e-01 3.106133e-05 -6.948770e-14 -2.246560e-07 3.106133e-05
9.920000e-01 3.245500e-05 -6.483750e-14 -7.778186e-07 3.245500e-05
9.960000e-01 2.558488e-05 -4.728900e-14 -1.139706e-06 2.558488e-05
1.000000e+00 1.938703e-05 -1.831453e-14 -1.295297e-06 1.938703e-05
1.004000e+00 1.920070e-05 1.774016e-14 -1.273683e-06 1.920070e-05
1.008000e+00 1.848292e-05 5.366831e-14 -1.102085e-06 1.848292e-05
1.012000e+00 1.273282e-05 8.012519e-14 -7.990669e-07 1.273282e-05
1.016000e+00 8.691524e-06 8.914717e-14 -3.426844e-07 8.691524e-06
1.020000e+00 1.145109e-05 7.854828e-14 3.197827e-07 1.145109e-05
1.024000e+00 1.403485e-05 5.291372e-14 1.163754e-06 1.403485e-05
1.028000e+00 9.615420e-06 2.079721e-14 2.023575e-06 9.615420e-06
1.032000e+00 4.032426e-06 -8.239342e-15 2.679115e-06 4.032426e-06
1.036000e+00 5.134562e-06 -2.540282e-14 2.944767e-06 5.134562e-06
1.040000e+00 8.610590e-06 -2.501580e-14 2.706037e-06 8.610590e-06
1.044000e+00 6.556885e-06 -7.303921e-15 1.967141e-06 6.556885e-06
1.048000e+00 2.420392e-06 2.132896e-14 8.606679e-07 2.420392e-06
1.052000e+00 4.353420e-06 5.145441e-14 -3.846868e-07 4.353420e-06
1.056000e+00 9.513889e-06 7.390471e-14 -1.474569e-06 9.513888e-06
1.060000e+00 8.627294e-06 8.097548e-14 -2.136154e-06 8.627294e-06
1.064000e+00 2.548764e-06 6.750067e-14 -2.280290e-06 2.548764e-06
1.068000e+00 3.609109e-07 3.313450e-14 -2.036591e-06 3.609109e-07
1.072000e+00 2.921919e-06 -1.645106e-14 -1.574660e-06 2.921919e-06
1.076000e+00 2.637761e-06 -7.166558e-14 -1.001976e-06 2.637761e-06
1.080000e+00 -8.769241e-07 -1.223270e-13 -4.695137e-07 -8.769240e-07
1.084000e+00 3.615789e-07 -1.590426e-13 -1.813204e-07 3.615790e-07
1.088000e+00 6.878893e-06 -1.736724e-13 -1.926489e-07 6.878893e-06
1.092000e+00 8.957858e-06 -1.613217e-13 -3.258214e-07 8.957858e-06
1.096000e+00 2.916271e-06 -1.224579e-13 -3.439868e-07 2.916271e-06
1.100000e+00 -2.848650e-06 -6.273087e-14 -1.345855e-07 -2.848650e-06
1.104000e+00 -2.785887e-06 8.566120e-15 2.214695e-07 -2.785887e-06
1.108000e+00 -2.762661e-06 7.936126e-14 4.791302e-07 -2.762661e-06
1.112000e+00 -7.293631e-06 1.358767e-13 4.393660e-07 -7.293631e-06
1.116000e+00 -1.012471e-05 1.664268e-13 2.068138e-07 -1.012471e-05
1.120000e+00 -6.097662e-06 1.662421e-13 9.644709e-08 -6.097662e-06
1.124000e+00 -1.915976e-06 1.385346e-13 2.370639e-07 -1.915976e-06
1.128000e+00 -5.085384e-06 9.163075e-14 4.596122e-07 -5.085384e-06
1.132000e+00 -1.094374e-05 3.629157e-14 5.705921e-07 -1.094374e-05
1.136000e+00 -1.170653e-05 -1.537039e-14 5.245096e-07 -1.170653e-05
1.140000e+00 -1.079914e-05 -5.208980e-14 4.248527e-07 -1.079914e-05
1.144000e+00 -1.601693e-05 -6.736229e-14 4.822004e-07 -1.601693e-05
1.148000e+00 -2.479545e-05 -6.160485e-14 8.043673e-07 -2.479545e-05
1.152000e+00 -2.927517e-05 -4.084859e-14 1.216520e-06 -2.927517e-05
1.156000e+00 -3.120661e-05 -1.398325e-14 1.400008e-06 -3.120661e-05
1.160000e+00 -3.838425e-05 9.778076e-15 1.137351e-06 -3.838425e-05
1.164000e+00 -4.918449e-05 2.324048e-14 4.323533e-07 -4.918449e-05
1.168000e+00 -5.452901e-05 2.371605e-14 -4.483346e-07 -5.452901e-05
1.172000e+00 -5.425551e-05 1.340379e-14 -1.082386e-06 -5.425551e-05
1.176000e+00 -5.720065e-05 -3.491663e-15 -1.197288e-06 -5.720065e-05
1.180000e+00 -6.425821e-05 -2.393565e-14 -8.972418e-07 -6.425821e-05
1.184000e+00 -6.575089e-05 -4.658620e-14 -5.658212e-07 -6.575089e-05
1.188000e+00 -5.774104e-05 -7.024698e-14 -5.383990e-07 -5.774104e-05
1.192000e+00 -4.693507e-05 -9.277725e-14 -8.860586e-07 -4.693507e-05
1.196000e+00 -3.610050e-05 -1.102883e-13 -1.433077e-06 -3.610050e-05
1.200000e+00 -1.848207e-05 -1.163908e-13 -1.815230e-06 -1.848207e-05
1.204000e+00 7.775756e-06 -1.034582e-13 -1.674401e-06 7.775756e-06
1.208000e+00 3.253203e-05 -6.694207e-14 -9.836599e-07 3.253203e-05
1.212000e+00 4.847097e-05 -9.761215e-15 -4.076653e-08 4.847097e-05
1.216000e+00 6.154559e-05 5.764662e-14 8.393931e-07 6.154559e-05
1.220000e+00 7.808763e-05 1.215543e-13 1.470782e-06 7.808763e-05
1.224000e+00 9.230066e-05 1.693416e-13 1.753847e-06 9.230066e-05
1.228000e+00 9.673042e-05 1.919937e-13 1.670926e-06 9.673041e-05
1.232000e+00 9.571749e-05 1.858467e-13 1.316648e-06 9.571749e-05
1.236000e+00 9.682783e-05 1.539805e-13 8.375255e-07 9.682783e-05
1.240000e+00 9.658849e-05 1.052941e-13 3.300897e-07 9.658849e-05
1.244000e+00 8.736488e-05 5.079691e-14 -1.443274e-07 8.736488e-05
1.248000e+00 7.236299e-05 5.354921e-17 -4.981461e-07 7.236299e-05
1.252000e+00 6.035949e-05 -4.015459e-14 -6.386319e-07 6.035949e-05
1.256000e+00 5.021468e-05 -6.609655e-14 -4.555171e-07 5.021468e-05
1.260000e+00 3.472792e-05 -7.748324e-14 1.281560e-07 3.472792e-05
1.264000e+00 1.663744e-05 -7.726204e-14 8.965546e-07 1.663744e-05
1.268000e+00 6.221861e-06 -7.029670e-14 1.342655e-06 6.221861e-06
1.272000e+00 4.135559e-06 -6.132637e-14 1.168547e-06 4.135559e-06
1.276000e+00 5.736639e-07 -5.324139e-14 5.851983e-07 5.736640e-07
1.280000e+00 -8.518357e-06 -4.679904e-14 -2.845730e-08 -8.518357e-06
1.284000e+00 -1.856093e-05 -4.176888e-14 -5.453611e-07 -1.856093e-05
1.288000e+00 -3.060039e-05 -3.858334e-14 -1.059102e-06 -3.060039e-05
1.292000e+00 -5.265799e-05 -3.907273e-14 -1.578744e-06 -5.265799e-05
1.296000e+00 -8.306428e-05 -4.509254e-14 -1.916621e-06 -8.306428e-05
1.300000e+00 -1.084896e-04 -5.591035e-14 -1.937512e-06 -1.084896e-04
1.304000e+00 -1.248433e-04 -6.749384e-14 -1.783979e-06 -1.248433e-04
1.308000e+00 -1.440341e-04 -7.456030e-14 -1.678073e-06 -1.440341e-04
1.312000e+00 -1.685238e-04 -7.295415e-14 -1.493100e-06 -1.685238e-04
1.316000e+00 -1.709312e-04 -5.961219e-14 -7.043051e-07 -1.709312e-04
1.320000e+00 -1.152622e-04 -3.112310e-14 9.964210e-07 -1.152622e-04
1.324000e+00 3.805457e-06 1.442031e-14 3.087658e-06 3.805457e-06
1.328000e+00 1.536255e-04 7.350181e-14 4.496403e-06 1.536255e-04
1.332000e+00 2.896377e-04 1.376619e-13 4.432809e-06 2.896377e-04
1.336000e+00 3.751865e-04 1.939415e-13 2.802351e-06 3.751865e-04
1.340000e+00 3.852253e-04 2.263175e-13 1.568641e-07 3.852253e-04
1.344000e+00 3.154720e-04 2.247528e-13 -2.455622e-06 3.154720e-04
1.348000e+00 1.920821e-04 1.908644e-13 -3.938268e-06 1.920821e-04
1.352000e+00 5.694625e-05 1.317519e-13 -3.803730e-06 5.694625e-05
1.356000e+00 -6.037291e-05 5.658550e-14 -2.356195e-06 -6.037291e-05
1.360000e+00 -1.492339e-04 -2.157771e-14 -3.061907e-07 -1.492339e-04
1.364000e+00 -2.044299e-04 -8.959268e-14 1.583777e-06 -2.044299e-04
1.368000e+00 -2.236111e-04 -1.389489e-13 2.719182e-06 -2.236111e-04
1.372000e+00 -2.174398e-04 -1.651848e-13 2.928794e-06 -2.174398e-04
1.376000e+00 -2.052411e-04 -1.670083e-13 2.432873e-06 -2.052411e-04
1.380000e+00 -1.956064e-04 -1.482132e-13 1.497844e-06 -1.956064e-04
1.384000e+00 -1.827095e-04 -1.170338e-13 3.261134e-07 -1.827095e-04
1.388000e+00 -1.638956e-04 -8.247063e-14 -7.747229e-07 -1.638956e-04
1.392000e+00 -1.471487e-04 -5.213425e-14 -1.459270e-06 -1.471487e-04
1.396000e+00 -1.367240e-04 -3.221211e-14 -1.672793e-06 -1.367240e-04
1.400000e+00 -1.252011e-04 -2.678593e-14 -1.663836e-06 -1.252011e-04
1.404000e+00 -1.073270e-04 -3.589332e-14 -1.616551e-06 -1.073270e-04
1.408000e+00 -9.007094e-05 -5.508662e-14 -1.529986e-06 -9.007094e-05
1.412000e+00 -7.989802e-05 -7.752100e-14 -1.414938e-06 -7.989802e-05
1.416000e+00 -7.063863e-05 -9.552911e-14 -1.278728e-06 -7.063863e-05
1.420000e+00 -5.470201e-05 -1.005770e-13 -1.006012e-06 -5.470201e-05
1.424000e+00 -3.692528e-05 -8.488063e-14 -5.140238e-07 -3.692528e-05
1.428000e+00 -2.548954e-05 -4.520857e-14 1.682796e-07 -2.548954e-05
1.432000e+00 -1.718941e-05 1.543093e-14 1.062015e-06 -1.718941e-05
1.436000e+00 -4.325730e-06 8.941621e-14 2.124698e-06 -4.325731e-06
1.440000e+00 1.027642e-05 1.658101e-13 2.981847e-06 1.027642e-05
1.444000e+00 1.842331e-05 2.308453e-13 3.142664e-06 1.842331e-05
1.448000e+00 2.209515e-05 2.708505e-13 2.462725e-06 2.209515e-05
1.452000e+00 3.010723e-05 2.775427e-13 1.251273e-06 3.010723e-05
1.456000e+00 4.181654e-05 2.511751e-13 6.451804e-08 4.181654e-05
1.460000e+00 4.802406e-05 1.984682e-13 -6.554419e-07 4.802406e-05
1.464000e+00 4.730247e-05 1.280984e-13 -9.532613e-07 4.730247e-05
1.468000e+00 4.760444e-05 4.812962e-14 -1.251913e-06 4.760444e-05
1.472000e+00 5.121271e-05 -3.421382e-14 -1.763435e-06 5.121271e-05
1.476000e+00 5.205071e-05 -1.123760e-13 -2.249351e-06 5.205071e-05
1.480000e+00 4.970857e-05 -1.802830e-13 -2.389398e-06 4.970857e-05
1.484000e+00 5.214066e-05 -2.313927e-13 -2.067251e-06 5.214066e-05
1.488000e+00 6.054925e-05 -2.581473e-13 -1.319910e-06 6.054925e-05
1.492000e+00 6.476406e-05 -2.541651e-13 -2.965307e-07 6.476406e-05
1.496000e+00 5.958161e-05 -2.178078e-13 7.639306e-07 5.958161e-05
1.500000e+00 5.361530e-05 -1.532707e-13 1.617013e-06 5.361530e-05
1.504000e+00 5.454547e-05 -6.949048e-14 2.019391e-06 5.454547e-05
1.508000e+00 5.707215e-05 2.047007e-14 1.772655e-06 5.707215e-05
1.512000e+00 5.431946e-05 1.003110e-13 9.499269e-07 5.431946e-05
1.516000e+00 5.039660e-05 1.543607e-13 -5.402299e-09 5.039660e-05
1.520000e+00 5.108144e-05 1.731407e-13 -5.904814e-07 5.108144e-05
1.524000e+00 5.128370e-05 1.559223e-13 -6.292597e-07 5.128370e-05
1.528000e+00 4.387981e-05 1.093535e-13 -2.599425e-07 4.387981e-05
1.532000e+00 3.395381e-05 4.550715e-14 2.971336e-07 3.395381e-05
1.536000e+00 3.145754e-05 -1.946712e-14 8.265707e-07 3.145754e-05
1.540000e+00 3.506515e-05 -6.860011e-14 1.175913e-06 3.506515e-05
1.544000e+00 3.625365e-05 -8.962492e-14 1.291382e-06 3.625365e-05
1.548000e+00 3.497600e-05 -7.877438e-14 1.112057e-06 3.497600e-05
1.552000e+00 3.775018e-05 -4.002266e-14 6.151766e-07 3.775018e-05
1.556000e+00 4.312559e-05 1.803509e-14 1.408288e-08 4.312559e-05
1.560000e+00 4.320811e-05 8.401749e-14 -4.006901e-07 4.320811e-05
1.564000e+00 3.891942e-05 1.442820e-13 -6.971023e-07 3.891942e-05
1.568000e+00 3.967980e-05 1.846150e-13 -1.218700e-06 3.967980e-05
1.572000e+00 4.701095e-05 1.938423e-13 -1.910904e-06 4.701095e-05
1.576000e+00 5.210664e-05 1.669149e-13 -2.164456e-06 5.210664e-05
1.580000e+00 5.170127e-05 1.057220e-13 -1.522427e-06 5.170127e-05
1.584000e+00 5.298498e-05 1.884894e-14 -1.869277e-07 5.298498e-05
1.588000e+00 5.901862e-05 -7.936700e-14 1.139541e-06 5.901862e-05
1.592000e+00 6.213029e-05 -1.720444e-13 1.702514e-06 6.213029e-05
1.596000e+00 5.777512e-05 -2.436948e-13 1.252212e-06 5.777512e-05
1.600000e+00 5.315211e-05 -2.819268e-13 2.565151e-07 5.315211e-05
1.604000e+00 5.448872e-05 -2.781633e-13 -6.162519e-07 5.448872e-05
1.608000e+00 5.640991e-05 -2.305399e-13 -1.127017e-06 5.640991e-05
1.612000e+00 5.267947e-05 -1.471699e-13 -1.438617e-06 5.267947e-05
1.616000e+00 4.803203e-05 -4.457921e-14 -1.621280e-06 4.803203e-05
1.620000e+00 4.899031e-05 5.858461e-14 -1.492079e-06 4.899031e-05
1.624000e+00 5.085254e-05 1.464621e-13 -9.572385e-07 5.085254e-05
1.628000e+00 4.566639e-05 2.069577e-13 -1.786693e-07 4.566639e-05
1.632000e+00 3.666119e-05 2.326575e-13 6.401903e-07 3.666119e-05
1.636000e+00 3.199515e-05 2.232994e-13 1.379725e-06 3.199515e-05
1.640000e+00 2.947264e-05 1.862003e-13 1.976716e-06 2.947264e-05
1.644000e+00 2.088244e-05 1.329620e-13 2.425967e-06 2.088244e-05
1.648000e+00 7.740546e-06 7.551207e-14 2.688283e-06 7.740546e-06
1.652000e+00 -1.139166e-06 2.397426e-14 2.560310e-06 -1.139166e-06
1.656000e+00 -5.739777e-06 -1.489972e-14 1.820653e-06 -5.739776e-06
1.660000e+00 -1.431134e-05 -3.957112e-14 5.534523e-07 -1.431134e-05
1.664000e+00 -2.703463e-05 -5.323950e-14 -7.916195e-07 -2.703463e-05
1.668000e+00 -3.473752e-05 -6.004253e-14 -1.676729e-06 -3.473752e-05
1.672000e+00 -3.569018e-05 -6.242050e-14 -1.799349e-06 -3.569018e-05
1.676000e+00 -3.934681e-05 -6.248555e-14 -1.265444e-06 -3.934681e-05
1.680000e+00 -4.965785e-05 -6.388807e-14 -4.909115e-07 -4.965785e-05
1.684000e+00 -5.844908e-05 -7.002365e-14 1.152310e-07 -5.844908e-05
1.688000e+00 -6.067050e-05 -8.068588e-14 3.063423e-07 -6.067050e-05
1.692000e+00 -6.304614e-05 -9.263512e-14 -6.171735e-08 -6.304614e-05
1.696000e+00 -7.062256e-05 -1.029185e-13 -9.283204e-07 -7.062256e-05
1.700000e+00 -7.699469e-05 -1.092816e-13 -1.875379e-06 -7.699469e-05
1.704000e+00 -7.670530e-05 -1.080507e-13 -2.365073e-06 -7.670530e-05
1.708000e+00 -7.626374e-05 -9.471669e-14 -2.127686e-06 -7.626374e-05
1.712000e+00 -8.238655e-05 -6.762415e-14 -1.216180e-06 -8.238655e-05
1.716000e+00 -8.907598e-05 -3.017095e-14 7.884341e-08 -8.907598e-05
1.720000e+00 -8.792780e-05 1.072098e-14 1.226629e-06 -8.792780e-05
1.724000e+00 -8.269269e-05 4.782072e-14 1.679775e-06 -8.269269e-05
1.728000e+00 -8.126013e-05 7.581136e-14 1.325625e-06 -8.126013e-05
1.732000e+00 -8.072310e-05 9.224134e-14 5.832253e-07 -8.072310e-05
1.736000e+00 -7.379561e-05 9.859040e-14 1.690960e-08 -7.379561e-05
1.740000e+00 -6.422718e-05 9.988096e-14 -1.189488e-08 -6.422718e-05
1.744000e+00 -6.171129e-05 1.015792e-13 5.474418e-07 -6.171129e-05
1.748000e+00 -6.504934e-05 1.054591e-13 1.372841e-06 -6.504934e-05
1.752000e+00 -6.456439e-05 1.086192e-13 1.893591e-06 -6.456439e-05
1.756000e+00 -5.940440e-05 1.057820e-13 1.761289e-06 -5.940440e-05
1.760000e+00 -5.798935e-05 9.259537e-14 1.129088e-06 -5.798935e-05
1.764000e+00 -6.124855e-05 6.739333e-14 3.260299e-07 -6.124855e-05
1.768000e+00 -5.980911e-05 3.174782e-14 -4.567538e-07 -5.980911e-05
1.772000e+00 -5.013210e-05 -9.470174e-15 -1.022150e-06 -5.013210e-05
1.776000e+00 -3.992729e-05 -4.962522e-14 -1.131590e-06 -3.992729e-05
1.780000e+00 -3.366410e-05 -8.252584e-14 -7.805094e-07 -3.366410e-05
1.784000e+00 -2.588110e-05 -1.040665e-13 -2.252473e-07 -2.588110e-05
1.788000e+00 -1.436803e-05 -1.131542e-13 2.570515e-07 -1.436803e-05
1.792000e+00 -7.149431e-06 -1.125817e-13 4.497377e-07 -7.149431e-06
1.796000e+00 -8.680077e-06 -1.087171e-13 1.976127e-07 -8.680077e-06
1.800000e+00 -1.043437e-05 -1.081831e-13 -4.640394e-07 -1.043437e-05
1.804000e+00 -4.336135e-06 -1.135420e-13 -1.259619e-06 -4.336135e-06
1.808000e+00 4.607922e-06 -1.217787e-13 -1.839766e-06 4.607923e-06
1.812000e+00 9.007676e-06 -1.260163e-13 -1.948511e-06 9.007676e-06
1.816000e+00 1.253192e-05 -1.182075e-13 -1.530768e-06 1.253192e-05
1.820000e+00 2.111249e-05 -9.188663e-14 -8.481574e-07 2.111249e-05
1.824000e+00 2.930480e-05 -4.515910e-14 -3.407883e-07 2.930480e-05
1.828000e+00 2.846800e-05 1.742407e-14 -1.948874e-07 2.846800e-05
1.832000e+00 2.224536e-05 8.612583e-14 -1.908723e-07 2.224536e-05
1.836000e+00 2.067746e-05 1.499910e-13 3.011102e-09 2.067746e-05
1.840000e+00 2.370163e-05 2.005851e-13 5.880180e-07 2.370163e-05
1.844000e+00 2.382265e-05 2.331730e-13 1.537932e-06 2.382265e-05
1.848000e+00 2.160886e-05 2.458894e-13 2.475153e-06 2.160886e-05
1.852000e+00 2.461484e-05 2.386254e-13 2.871737e-06 2.461484e-05
1.856000e+00 3.223960e-05 2.126196e-13 2.601358e-06 3.223960e-05
1.860000e+00 3.535179e-05 1.701212e-13 1.951305e-06 3.535179e-05
1.864000e+00 3.169125e-05 1.134521e-13 9.620176e-07 3.169125e-05
1.868000e+00 2.856508e-05 4.490631e-14 -6.650689e-07 2.856508e-05
1.872000e+00 2.866171e-05 -3.112172e-14 -2.627621e-06 2.866171e-05
1.876000e+00 2.668082e-05 -1.050480e-13 -3.466074e-06 2.668082e-05
1.880000e+00 2.284361e-05 -1.619033e-13 -1.680639e-06 2.284361e-05
1.884000e+00 2.595294e-05 -1.868667e-13 2.456718e-06 2.595294e-05
1.888000e+00 3.785042e-05 -1.740011e-13 6.505554e-06 3.785042e-05
1.892000e+00 4.725627e-05 -1.322360e-13 7.415351e-06 4.725627e-05
1.896000e+00 4.595608e-05 -8.436416e-14 3.774972e-06 4.595608e-05
1.900000e+00 3.990974e-05 -5.867545e-14 -2.948426e-06 3.990974e-05
1.904000e+00 3.636360e-05 -7.044177e-14 -9.329089e-06 3.636360e-05
1.908000e+00 3.136247e-05 -1.120822e-13 -1.238791e-05 3.136247e-05
1.912000e+00 2.032821e-05 -1.633221e-13 -1.125231e-05 2.032821e-05
1.916000e+00 1.069834e-05 -2.052557e-13 -6.933545e-06 1.069834e-05
1.920000e+00 1.165059e-05 -2.211494e-13 -1.260420e-06 1.165059e-05
1.924000e+00 1.863830e-05 -1.955548e-13 3.828939e-06 1.863830e-05
1.928000e+00 2.051100e-05 -1.237501e-13 6.822965e-06 2.051100e-05
1.932000e+00 1.654085e-05 -1.639557e-14 7.325275e-06 1.654085e-05
1.936000e+00 1.388370e-05 1.067382e-13 6.170207e-06 1.388370e-05
1.940000e+00 1.247999e-05 2.261807e-13 4.571794e-06 1.247999e-05
1.944000e+00 6.436983e-06 3.249139e-13 3.259984e-06 6.436983e-06
1.948000e+00 -1.597931e-06 3.877106e-13 2.336342e-06 -1.597931e-06
1.952000e+00 -2.010350e-06 4.058612e-13 1.520962e-06 -2.010351e-06
1.956000e+00 5.373424e-06 3.802201e-13 5.026889e-07 5.373423e-06
1.960000e+00 1.011259e-05 3.159191e-13 -7.341147e-07 1.011259e-05
1.964000e+00 8.074779e-06 2.174183e-13 -1.862247e-06 8.074779e-06
1.968000e+00 6.361859e-06 9.278540e-14 -2.434963e-06 6.361859e-06
1.972000e+00 8.486770e-06 -4.072420e-14 -2.243632e-06 8.486770e-06
1.976000e+00 8.059643e-06 -1.612052e-13 -1.589951e-06 8.059643e-06
1.980000e+00 2.379584e-06 -2.516275e-13 -1.075065e-06 2.379584e-06
1.984000e+00 -3.880262e-07 -3.016948e-13 -9.414807e-07 -3.880259e-07
1.988000e+00 5.265226e-06 -3.040256e-13 -7.626375e-07 5.265226e-06
1.992000e+00 1.256197e-05 -2.568375e-13 -7.305513e-08 1.256197e-05
1.996000e+00 1.415502e-05 -1.729468e-13 8.086948e-07 1.415502e-05
2.000000e+00 1.322211e-05 -8.065684e-14 9.825034e-07 1.322211e-05
2.004000e+00 1.403822e-05 -1.120992e-14 -9.676655e-09 1.403822e-05
2.008000e+00 1.113351e-05 1.488850e-14 -1.722555e-06 1.113351e-05
2.012000e+00 -1.342061e-06 -7.520667e-15 -3.395238e-06 -1.342061e-06
2.016000e+00 -1.679714e-05 -6.843277e-14 -4.461305e-06 -1.679714e-05
2.020000e+00 -2.386310e-05 -1.424264e-13 -4.190478e-06 -2.386310e-05
2.024000e+00 -2.139356e-05 -1.930654e-13 -1.588518e-06 -2.139356e-05
2.028000e+00 -1.530759e-05 -1.878074e-13 3.398103e-06 -1.530759e-05
2.032000e+00 -5.991296e-06 -1.156119e-13 8.730772e-06 -5.991295e-06
2.036000e+00 8.763937e-06 7.584239e-15 1.110886e-05 8.763937e-06
2.040000e+00 2.209659e-05 1.475090e-13 8.454810e-06 2.209658e-05
2.044000e+00 2.328976e-05 2.626408e-13 1.818876e-06 2.328976e-05
2.048000e+00 1.369772e-05 3.180312e-13 -5.234009e-06 1.369772e-05
2.052000e+00 4.519278e-06 3.064657e-13 -9.383456e-06 4.519277e-06
2.056000e+00 -8.256284e-07 2.497252e-13 -9.697701e-06 -8.256286e-07
2.060000e+00 -8.722606e-06 1.787148e-13 -7.165132e-06 -8.722606e-06
2.064000e+00 -1.954674e-05 1.150804e-13 -3.097405e-06 -1.954674e-05
2.068000e+00 -2.424970e-05 6.872081e-14 1.316920e-06 -2.424970e-05
2.072000e+00 -1.941799e-05 4.304971e-14 4.856241e-06 -1.941799e-05
2.076000e+00 -1.245746e-05 3.309170e-14 6.719843e-06 -1.245746e-05
2.080000e+00 -7.866976e-06 2.495233e-14 6.891160e-06 -7.866976e-06
2.084000e+00 -7.994676e-07 5.464979e-15 5.828214e-06 -7.994676e-07
2.088000e+00 1.024686e-05 -2.645317e-14 3.978026e-06 1.024686e-05
2.092000e+00 1.619604e-05 -6.350272e-14 1.453541e-06 1.619604e-05
2.096000e+00 1.083153e-05 -1.044175e-13 -1.750013e-06 1.083153e-05
2.100000e+00 1.494295e-06 -1.551952e-13 -5.055286e-06 1.494295e-06
2.104000e+00 -2.740405e-06 -2.160747e-13 -7.318788e-06 -2.740405e-06
2.108000e+00 -4.947686e-06 -2.773085e-13 -7.811604e-06 -4.947685e-06
2.112000e+00 -1.243247e-05 -3.290099e-13 -6.626622e-06 -1.243247e-05
2.116000e+00 -2.257918e-05 -3.649352e-13 -4.088727e-06 -2.257918e-05
2.120000e+00 -2.826466e-05 -3.719866e-13 -5.790446e-07 -2.826466e-05
2.124000e+00 -3.156855e-05 -3.280273e-13 2.988290e-06 -3.156855e-05
2.128000e+00 -3.933035e-05 -2.197545e-13 5.345535e-06 -3.933035e-05
2.132000e+00 -4.923104e-05 -5.691139e-14 5.758797e-06 -4.923104e-05
2.136000e+00 -5.359844e-05 1.340017e-13 4.476542e-06 -5.359844e-05
2.140000e+00 -5.409098e-05 3.207724e-13 2.555394e-06 -5.409098e-05
2.144000e+00 -5.896584e-05 4.657559e-13 1.292921e-06 -5.896584e-05
2.148000e+00 -6.738440e-05 5.291516e-13 1.236505e-06 -6.738440e-05
2.152000e+00 -6.976794e-05 4.883817e-13 1.791867e-06 -6.976794e-05
2.156000e+00 -6.299105e-05 3.552431e-13 2.243357e-06 -6.299105e-05
2.160000e+00 -5.230937e-05 1.703486e-13 2.567636e-06 -5.230937e-05
2.164000e+00 -3.834195e-05 -1.580487e-14 2.726073e-06 -3.834195e-05
2.168000e+00 -1.530704e-05 -1.562283e-13 2.017224e-06 -1.530704e-05
2.172000e+00 1.536384e-05 -2.171224e-13 -2.768483e-07 1.536384e-05
2.176000e+00 4.175819e-05 -1.927962e-13 -4.017437e-06 4.175819e-05
2.180000e+00 5.723950e-05 -1.127166e-13 -7.922283e-06 5.723950e-05
2.184000e+00 6.917472e-05 -2.196164e-14 -1.003161e-05 6.917472e-05
2.188000e+00 8.475707e-05 4.832626e-14 -9.144862e-06 8.475707e-05
2.192000e+00 9.813797e-05 8.779705e-14 -5.933548e-06 9.813797e-05
2.196000e+00 1.012472e-04 9.284991e-14 -2.078852e-06 1.012472e-04
2.200000e+00 9.797848e-05 6.382302e-14 1.448601e-06 9.797848e-05
2.204000e+00 9.585905e-05 1.686586e-14 4.589178e-06 9.585905e-05
2.208000e+00 9.188395e-05 -1.979741e-14 7.025338e-06 9.188395e-05
2.212000e+00 7.951833e-05 -2.837540e-14 7.739903e-06 7.951833e-05
2.216000e+00 6.274725e-05 -1.377045e-14 5.885894e-06 6.274725e-05
2.220000e+00 5.008320e-05 8.798782e-15 1.851631e-06 5.008320e-05
2.224000e+00 4.058640e-05 3.051986e-14 -2.304306e-06 4.058640e-05
2.228000e+00 2.890347e-05 4.744007e-14 -3.728988e-06 2.890347e-05
2.232000e+00 1.907426e-05 5.395058e-14 -1.139915e-06 1.907426e-05
2.236000e+00 1.892600e-05 4.802908e-14 3.416929e-06 1.892600e-05
2.240000e+00 2.328191e-05 3.308491e-14 5.855640e-06 2.328191e-05
2.244000e+00 1.805408e-05 4.178383e-15 3.671090e-06 1.805408e-05
2.248000e+00 1.165778e-06 -5.493030e-14 -1.604226e-06 1.165778e-06
2.252000e+00 -1.653716e-05 -1.449478e-13 -6.176496e-06 -1.653716e-05
2.256000e+00 -3.235446e-05 -2.350033e-13 -8.139652e-06 -3.235446e-05
2.260000e+00 -5.493626e-05 -2.883253e-13 -8.064889e-06 -5.493626e-05
2.264000e+00 -8.263994e-05 -2.880182e-13 -5.697222e-06 -8.263994e-05
2.268000e+00 -9.925880e-05 -2.250248e-13 6.409730e-07 -9.925880e-05
2.272000e+00 -9.971445e-05 -7.931859e-14 1.029040e-05 -9.971445e-05
2.276000e+00 -1.013279e-04 1.376475e-13 1.816048e-05 -1.013279e-04
2.280000e+00 -1.159201e-04 3.302191e-13 1.803755e-05 -1.159201e-04
2.284000e+00 -1.228786e-04 3.792958e-13 8.211929e-06 -1.228786e-04
2.288000e+00 -8.599774e-05 2.748217e-13 -6.265504e-06 -8.599774e-05
2.292000e+00 7.074087e-06 1.129519e-13 -1.738032e-05 7.074087e-06
2.296000e+00 1.334077e-04 1.137942e-14 -2.054548e-05 1.334077e-04
2.300000e+00 2.556204e-04 1.118687e-13 -1.701509e-05 2.556204e-04
2.304000e+00 3.395104e-04 4.288243e-13 -1.047112e-05 3.395104e-04
2.308000e+00 3.589932e-04 7.672477e-13 -3.022584e-06 3.589932e-04
2.312000e+00 3.064363e-04 8.901351e-13 4.498241e-06 3.064363e-04
2.316000e+00 2.022130e-04 6.907471e-13 1.025812e-05 2.022130e-04
2.320000e+00 8.105280e-05 2.141450e-13 1.208813e-05 8.105280e-05
2.324000e+00 -3.259984e-05 -4.129455e-13 1.007116e-05 -3.259984e-05
2.328000e+00 -1.280866e-04 -1.011446e-12 6.565237e-06 -1.280866e-04
2.332000e+00 -1.954545e-04 -1.393565e-12 3.727284e-06 -1.954545e-04
2.336000e+00 -2.264199e-04 -1.440591e-12 2.170007e-06 -2.264199e-04
2.340000e+00 -2.279478e-04 -1.149574e-12 1.627702e-06 -2.279478e-04
2.344000e+00 -2.189277e-04 -6.424146e-13 1.492741e-06 -2.189277e-04
2.348000e+00 -2.098280e-04 -1.238378e-13 6.705274e-07 -2.098280e-04
2.352000e+00 -1.974106e-04 2.164944e-13 -1.665233e-06 -1.974106e-04
2.356000e+00 -1.805033e-04 2.921778e-13 -4.552928e-06 -1.805033e-04
2.360000e+00 -1.657311e-04 1.341536e-13 -5.473632e-06 -1.657311e-04
2.364000e+00 -1.535632e-04 -1.451787e-13 -2.993277e-06 -1.535632e-04
2.368000e+00 -1.343496e-04 -3.949926e-13 1.436592e-06 -1.343496e-04
2.372000e+00 -1.054821e-04 -4.835604e-13 4.846273e-06 -1.054821e-04
2.376000e+00 -7.906494e-05 -3.625820e-13 5.075263e-06 -7.906494e-05
2.380000e+00 -6.426722e-05 -9.369748e-14 1.900687e-06 -6.426722e-05
2.384000e+00 -5.398165e-05 1.937524e-13 -2.775363e-06 -5.398165e-05
2.388000e+00 -3.863328e-05 3.931422e-13 -6.237175e-06 -3.863328e-05
2.392000e+00 -2.237507e-05 4.736020e-13 -7.381192e-06 -2.237507e-05
2.396000e+00 -1.380147e-05 4.542732e-13 -7.263744e-06 -1.380147e-05
2.400000e+00 -9.961410e-06 3.656955e-13 -7.206559e-06 -9.961410e-06
2.404000e+00 -2.979069e-06 2.523541e-13 -7.252853e-06 -2.979069e-06
2.408000e+00 4.819882e-06 1.709554e-13 -6.415469e-06 4.819882e-06
2.412000e+00 6.248717e-06 1.491665e-13 -3.837744e-06 6.248717e-06
2.416000e+00 4.327123e-06 1.612317e-13 3.184965e-07 4.327123e-06
2.420000e+00 8.058274e-06 1.658412e-13 4.887274e-06 8.058274e-06
2.424000e+00 1.654060e-05 1.515079e-13 8.441056e-06 1.654060e-05
2.428000e+00 2.140806e-05 1.304902e-13 1.016020e-05 2.140806e-05
2.432000e+00 2.353312e-05 1.096912e-13 1.027269e-05 2.353312e-05
2.436000e+00 3.238069e-05 9.414133e-14 9.574581e-06 3.238069e-05
2.440000e+00 4.799835e-05 1.041234e-13 8.455147e-06 4.799835e-05
2.444000e+00 5.885393e-05 1.526106e-13 6.586319e-06 5.885393e-05
2.448000e+00 6.033413e-05 2.148665e-13 3.558197e-06 6.033413e-05
2.452000e+00 6.063495e-05 2.474597e-13 -3.901228e-07 6.063495e-05
2.456000e+00 6.410969e-05 2.298608e-13 -4.429899e-06 6.410968e-05
2.460000e+00 6.335015e-05 1.632449e-13 -7.690098e-06 6.335015e-05
2.464000e+00 5.426531e-05 4.464600e-14 -9.459482e-06 5.426531e-05
2.468000e+00 4.568240e-05 -1.283283e-13 -9.142131e-06 4.568240e-05
2.472000e+00 4.559154e-05 -3.308100e-13 -6.411550e-06 4.559154e-05
2.476000e+00 4.928960e-05 -5.157841e-13 -1.619992e-06 4.928960e-05
2.480000e+00 5.040083e-05 -6.498426e-13 3.754112e-06 5.040083e-05
2.484000e+00 5.291219e-05 -7.192242e-13 7.300137e-06 5.291219e-05
2.488000e+00 6.116480e-05 -7.019667e-13 7.109283e-06 6.116480e-05
2.492000e+00 6.757439e-05 -5.678066e-13 3.445718e-06 6.757439e-05
2.496000e+00 6.319411e-05 -3.129738e-13 -1.372540e-06 6.319411e-05
2.500000e+00 5.263547e-05 3.085038e-14 -5.015017e-06 5.263547e-05
2.504000e+00 4.579408e-05 4.217994e-13 -6.785350e-06 4.579408e-05
2.508000e+00 4.215607e-05 8.101470e-13 -7.133955e-06 4.215607e-05
2.512000e+00 3.609365e-05 1.114135e-12 -6.223452e-06 3.609365e-05
2.516000e+00 3.092161e-05 1.236805e-12 -3.817566e-06 3.092161e-05
2.520000e+00 3.361710e-05 1.132815e-12 -4.164452e-07 3.361710e-05
2.524000e+00 3.976333e-05 8.424492e-13 2.469227e-06 3.976333e-05
2.528000e+00 3.827997e-05 4.534475e-13 3.656509e-06 3.827997e-05
2.532000e+00 2.964411e-05 5.543658e-14 3.495160e-06 2.964411e-05
2.536000e+00 2.541044e-05 -2.625163e-13 3.337710e-06 2.541044e-05
2.540000e+00 2.952430e-05 -4.162933e-13 3.979692e-06 2.952430e-05
2.544000e+00 3.400346e-05 -3.755073e-13 4.954781e-06 3.400346e-05
2.548000e+00 3.499514e-05 -2.065301e-13 5.314512e-06 3.499514e-05
2.552000e+00 3.900596e-05 -3.850696e-14 4.640035e-06 3.900596e-05
2.556000e+00 4.886436e-05 2.356780e-14 3.202254e-06 4.886436e-05
2.560000e+00 5.676162e-05 -5.130106e-14 1.524696e-06 5.676162e-05
2.564000e+00 5.748570e-05 -2.303503e-13 -1.917354e-07 5.748570e-05
2.568000e+00 5.670963e-05 -4.365987e-13 -2.299172e-06 5.670963e-05
2.572000e+00 5.900288e-05 -5.670032e-13 -5.017517e-06 5.900288e-05
2.576000e+00 5.889559e-05 -5.400751e-13 -7.498950e-06 5.889559e-05
2.580000e+00 5.219381e-05 -3.493626e-13 -8.165089e-06 5.219381e-05
2.584000e+00 4.538296e-05 -6.085356e-14 -6.266497e-06 4.538296e-05
2.588000e+00 4.378579e-05 2.383930e-13 -2.831065e-06 4.378579e-05
2.592000e+00 4.028081e-05 4.660723e-13 2.580959e-07 4.028081e-05
2.596000e+00 2.758412e-05 5.419693e-13 2.154646e-06 2.758412e-05
2.600000e+00 1.284302e-05 4.223039e-13 3.523153e-06 1.284302e-05
2.604000e+00 6.841360e-06 1.579812e-13 4.912722e-06 6.841360e-06
2.608000e+00 6.526612e-06 -1.193641e-13 5.603329e-06 6.526612e-06
2.612000e+00 1.766572e-06 -2.943204e-13 4.651830e-06 1.766572e-06
2.616000e+00 -7.234753e-06 -3.359084e-13 2.340022e-06 -7.234753e-06
2.620000e+00 -1.265201e-05 -2.764459e-13 1.546362e-07 -1.265201e-05
2.624000e+00 -1.388498e-05 -1.615156e-13 -3.362240e-07 -1.388498e-05
2.628000e+00 -1.622047e-05 -2.984969e-14 1.152652e-06 -1.622047e-05
2.632000e+00 -1.819841e-05 8.903008e-14 2.821413e-06 -1.819841e-05
2.636000e+00 -1.424887e-05 1.821096e-13 1.952952e-06 -1.424887e-05
2.640000e+00 -8.489370e-06 2.484660e-13 -2.273088e-06 -8.489370e-06
2.644000e+00 -1.211849e-05 2.795824e-13 -7.670707e-06 -1.211849e-05
2.648000e+00 -2.629094e-05 2.629124e-13 -1.102976e-05 -2.629094e-05
2.652000e+00 -3.984704e-05 2.023597e-13 -1.029064e-05 -3.984704e-05
2.656000e+00 -4.637087e-05 1.162911e-13 -5.351157e-06 -4.637087e-05
2.660000e+00 -5.197254e-05 8.648408e-15 1.659702e-06 -5.197254e-05
2.664000e+00 -6.138005e-05 -1.461116e-13 7.551823e-06 -6.138005e-05
2.668000e+00 -6.806035e-05 -3.646856e-13 1.047897e-05 -6.806035e-05
2.672000e+00 -6.667226e-05 -5.991273e-13 1.034686e-05 -6.667226e-05
2.676000e+00 -6.437256e-05 -7.499898e-13 7.361215e-06 -6.437256e-05
2.680000e+00 -6.889542e-05 -7.650000e-13 1.999420e-06 -6.889542e-05
2.684000e+00 -7.525014e-05 -6.753619e-13 -4.029534e-06 -7.525014e-05
2.688000e+00 -7.589369e-05 -5.169676e-13 -8.355682e-06 -7.589369e-05
2.692000e+00 -7.499663e-05 -2.758186e-13 -9.507657e-06 -7.499663e-05
2.696000e+00 -7.994759e-05 4.523770e-14 -7.483370e-06 -7.994759e-05
2.700000e+00 -8.635788e-05 3.648868e-13 -3.222677e-06 -8.635788e-05
2.704000e+00 -8.517031e-05 5.713055e-13 1.893608e-06 -8.517031e-05
2.708000e+00 -7.909719e-05 5.979806e-13 6.148533e-06 -7.909719e-05
2.712000e+00 -7.771495e-05 4.501817e-13 7.940069e-06 -7.771495e-05
2.716000e+00 -7.983899e-05 1.869936e-13 6.787120e-06 -7.983899e-05
2.720000e+00 -7.563316e-05 -1.002657e-13 3.710389e-06 -7.563316e-05
2.724000e+00 -6.418234e-05 -3.114570e-13 5.220770e-07 -6.418234e-05
2.728000e+00 -5.394107e-05 -3.769341e-13 -1.260481e-06 -5.394107e-05
2.732000e+00 -4.666776e-05 -2.874925e-13 -1.400336e-06 -4.666776e-05
2.736000e+00 -3.600847e-05 -9.065628e-14 -9.788226e-07 -3.600847e-05
2.740000e+00 -2.293726e-05 1.362130e-13 -1.107792e-06 -2.293726e-05
2.744000e+00 -1.764119e-05 3.066947e-13 -1.887141e-06 -1.764119e-05
2.748000e+00 -2.241490e-05 3.429576e-13 -2.717352e-06 -2.241490e-05
2.752000e+00 -2.632669e-05 2.115528e-13 -3.015978e-06 -2.632669e-05
2.756000e+00 -2.209247e-05 -4.046200e-14 -2.552724e-06 -2.209247e-05
2.760000e+00 -1.592504e-05 -2.969932e-13 -1.744591e-06 -1.592504e-05
2.764000e+00 -1.453562e-05 -4.384088e-13 -1.587020e-06 -1.453562e-05
2.768000e+00 -1.411816e-05 -4.044809e-13 -2.462593e-06 -1.411816e-05
2.772000e+00 -1.009070e-05 -2.118758e-13 -3.093892e-06 -1.009070e-05
2.776000e+00 -6.502627e-06 6.194339e-14 -1.558470e-06 -6.502627e-06
2.780000e+00 -5.876820e-06 3.107566e-13 2.518491e-06 -5.876821e-06
2.784000e+00 -3.728032e-07 4.512005e-13 7.100997e-06 -3.728037e-07
2.788000e+00 1.527823e-05 4.669737e-13 9.168928e-06 1.527823e-05
2.792000e+00 3.098218e-05 3.984050e-13 7.177407e-06 3.098218e-05
2.796000e+00 3.387771e-05 2.922076e-13 2.371899e-06 3.387771e-05
2.800000e+00 2.700398e-05 1.738345e-13 -2.282280e-06 2.700398e-05
2.804000e+00 2.269297e-05 6.513832e-14 -4.521271e-06 2.269297e-05
2.808000e+00 2.339474e-05 -9.376762e-15 -3.967933e-06 2.339474e-05
2.812000e+00 2.304943e-05 -4.847413e-14 -1.616305e-06 2.304943e-05
2.816000e+00 2.191800e-05 -8.096517e-14 6.273283e-07 2.191800e-05
2.820000e+00 2.538092e-05 -1.379897e-13 8.936706e-07 2.538092e-05
2.824000e+00 3.147624e-05 -2.281685e-13 -8.711746e-07 3.147624e-05
2.828000e+00 3.262665e-05 -3.291480e-13 -3.167199e-06 3.262665e-05
2.832000e+00 2.905920e-05 -3.895467e-13 -4.797289e-06 2.905920e-05
2.836000e+00 2.949851e-05 -3.497580e-13 -4.928670e-06 2.949851e-05
2.840000e+00 3.725089e-05 -1.784311e-13 -2.437128e-06 3.725089e-05
2.844000e+00 4.610001e-05 9.674440e-14 2.924138e-06 4.610001e-05
2.848000e+00 5.208821e-05 3.874890e-13 8.862742e-06 5.208821e-05
2.852000e+00 5.783641e-05 5.855184e-13 1.113608e-05 5.783641e-05
2.856000e+00 6.156503e-05 6.161595e-13 6.773479e-06 6.156503e-05
2.860000e+00 5.423775e-05 4.628245e-13 -2.852946e-06 5.423775e-05
2.864000e+00 3.428707e-05 1.695781e-13 -1.233269e-05 3.428707e-05
2.868000e+00 1.423096e-05 -1.611559e-13 -1.605374e-05 1.423096e-05
2.872000e+00 4.731599e-06 -3.991896e-13 -1.227939e-05 4.731600e-06
2.876000e+00 1.928262e-06 -4.481193e-13 -3.719572e-06 1.928263e-06
2.880000e+00 -1.692973e-06 -3.090732e-13 5.207768e-06 -1.692973e-06
2.884000e+00 -4.392562e-06 -8.418275e-14 1.111965e-05 -4.392562e-06
2.888000e+00 -2.186154e-06 9.454486e-14 1.281159e-05 -2.186154e-06
2.892000e+00 6.603389e-07 1.464700e-13 1.090747e-05 6.603387e-07
2.896000e+00 -1.149105e-06 7.463287e-14 6.830173e-06 -1.149105e-06
2.900000e+00 -2.430433e-06 -5.685806e-14 2.634511e-06 -2.430432e-06
2.904000e+00 5.835169e-06 -1.652418e-13 1.012524e-06 5.835169e-06
2.908000e+00 2.159829e-05 -1.864616e-13 3.222549e-06 2.159829e-05
2.912000e+00 3.335996e-05 -1.029574e-13 6.530849e-06 3.335996e-05
2.916000e+00 3.499335e-05 4.837932e-14 5.560947e-06 3.499335e-05
2.920000e+00 2.957358e-05 1.931743e-13 -2.559720e-06 2.957358e-05
2.924000e+00 2.026030e-05 2.565670e-13 -1.450953e-05 2.026030e-05
2.928000e+00 9.498665e-06 2.099199e-13 -2.241617e-05 9.498664e-06
2.932000e+00 6.598322e-06 8.867925e-14 -2.006818e-05 6.598322e-06
2.936000e+00 2.094601e-05 -1.911700e-14 -8.700858e-06 2.094601e-05
2.940000e+00 4.488385e-05 -1.965125e-14 3.665605e-06 4.488385e-05
2.944000e+00 5.718310e-05 9.002953e-14 9.274542e-06 5.718310e-05
2.948000e+00 4.770350e-05 1.953972e-13 6.806157e-06 4.770350e-05
2.952000e+00 2.675546e-05 1.637582e-13 8.501067e-07 2.675546e-05
2.956000e+00 6.937571e-06 -1.795810e-14 -3.417698e-06 6.937571e-06
2.960000e+00 -1.032598e-05 -2.295612e-13 -4.001550e-06 -1.032598e-05
2.964000e+00 -2.467940e-05 -3.285578e-13 -1.465237e-06 -2.467940e-05
2.968000e+00 -2.848952e-05 -2.463296e-13 3.064739e-06 -2.848952e-05
2.972000e+00 -1.928382e-05 -5.916652e-15 8.145980e-06 -1.928382e-05
2.976000e+00 -9.069998e-06 2.950847e-13 1.150979e-05 -9.069999e-06
2.980000e+00 -9.190152e-06 5.115508e-13 1.113815e-05 -9.190152e-06
2.984000e+00 -1.494988e-05 5.168599e-13 7.100663e-06 -1.494988e-05
2.988000e+00 -1.709343e-05 2.886877e-13 1.491150e-06 -1.709343e-05
2.992000e+00 -1.876939e-05 -7.004052e-14 -3.203749e-06 -1.876939e-05
2.996000e+00 -2.690126e-05 -4.092086e-13 -5.166657e-06 -2.690126e-05
3.000000e+00 -3.518101e-05 -6.164590e-13 -3.743700e-06 -3.518101e-05
3.004000e+00 -3.198679e-05 -6.439365e-13 5.823791e-08 -3.198679e-05
3.008000e+00 -2.007932e-05 -5.114472e-13 3.747624e-06 -2.007932e-05
3.012000e+00 -1.192411e-05 -3.095780e-13 4.724599e-06 -1.192411e-05
3.016000e+00 -8.418517e-06 -1.590192e-13 2.171370e-06 -8.418517e-06
3.020000e+00 3.689284e-07 -1.181265e-13 -2.319948e-06 3.689285e-07
3.024000e+00 1.452165e-05 -1.306619e-13 -6.161253e-06 1.452165e-05
3.028000e+00 2.224069e-05 -8.716177e-14 -7.885844e-06 2.224069e-05
3.032000e+00 1.972176e-05 6.509443e-14 -7.925157e-06 1.972176e-05
3.036000e+00 1.725097e-05 2.809451e-13 -7.178552e-06 1.725097e-05
3.040000e+00 2.175242e-05 4.688328e-13 -5.668904e-06 2.175242e-05
3.044000e+00 2.637076e-05 5.565436e-13 -3.556905e-06 2.637076e-05
3.048000e+00 2.351269e-05 5.111236e-13 -2.022888e-06 2.351269e-05
3.052000e+00 1.643532e-05 3.454355e-13 -1.645129e-06 1.643532e-05
3.056000e+00 9.583432e-06 1.272354e-13 -1.117683e-06 9.583432e-06
3.060000e+00 -8.510118e-07 -5.045356e-14 1.188116e-06 -8.510117e-07
3.064000e+00 -1.659360e-05 -1.259216e-13 5.081642e-06 -1.659360e-05
3.068000e+00 -2.904090e-05 -8.737768e-14 8.502397e-06 -2.904090e-05
3.072000e+00 -3.266523e-05 4.754068e-14 9.193528e-06 -3.266523e-05
3.076000e+00 -3.627272e-05 2.307328e-13 6.558068e-06 -3.627272e-05
3.080000e+00 -4.912389e-05 3.690798e-13 2.472201e-06 -4.912389e-05
3.084000e+00 -6.512950e-05 3.625069e-13 -1.634097e-08 -6.512950e-05
3.088000e+00 -7.350260e-05 1.808251e-13 5.498921e-07 -7.350260e-05
3.092000e+00 -7.666903e-05 -1.242128e-13 3.013101e-06 -7.666903e-05
3.096000e+00 -8.357273e-05 -4.855852e-13 5.152512e-06 -8.357273e-05
3.100000e+00 -9.146513e-05 -8.514334e-13 4.930144e-06 -9.146512e-05
3.104000e+00 -8.748593e-05 -1.151773e-12 1.487479e-06 -8.748593e-05
3.108000e+00 -6.497859e-05 -1.286094e-12 -3.221450e-06 -6.497859e-05
3.112000e+00 -2.814980e-05 -1.177084e-12 -5.586320e-06 -2.814980e-05
3.116000e+00 1.669273e-05 -8.200500e-13 -4.192333e-06 1.669273e-05
3.120000e+00 6.282076e-05 -2.816475e-13 -1.274046e-06 6.282076e-05
3.124000e+00 9.635493e-05 3.150111e-13 -5.988497e-07 9.635493e-05
3.128000e+00 1.034362e-04 8.157812e-13 -3.982176e-06 1.034362e-04
3.132000e+00 8.922603e-05 1.087759e-12 -9.065920e-06 8.922603e-05
3.136000e+00 7.628754e-05 1.100012e-12 -1.114020e-05 7.628754e-05
3.140000e+00 7.879391e-05 9.606389e-13 -7.681180e-06 7.879391e-05
3.144000e+00 8.954792e-05 8.390405e-13 -6.598962e-07 8.954792e-05
3.148000e+00 9.578864e-05 8.334805e-13 5.511928e-06 9.578864e-05
3.152000e+00 9.488330e-05 9.109457e-13 7.835825e-06 9.488330e-05
3.156000e+00 8.822683e-05 9.506918e-13 6.689605e-06 8.822683e-05
3.160000e+00 7.269933e-05 8.257105e-13 4.574302e-06 7.269933e-05
3.164000e+00 4.897579e-05 4.739238e-13 3.397135e-06 4.897579e-05
3.168000e+00 2.845310e-05 -5.251822e-14 3.059736e-06 2.845310e-05
3.172000e+00 1.953110e-05 -5.828589e-13 2.165914e-06 1.953110e-05
3.176000e+00 1.430417e-05 -9.131872e-13 -2.711176e-07 1.430417e-05
3.180000e+00 1.203751e-06 -9.471615e-13 -3.494733e-06 1.203752e-06
3.184000e+00 -1.570641e-05 -7.588324e-13 -5.293931e-06 -1.570641e-05
3.188000e+00 -2.296933e-05 -5.167009e-13 -3.785063e-06 -2.296933e-05
3.192000e+00 -1.821695e-05 -3.639293e-13 9.556895e-07 -1.821695e-05
3.196000e+00 -1.227292e-05 -3.498010e-13 6.251106e-06 -1.227292e-05
3.200000e+00 -1.448382e-05 -4.314550e-13 7.912518e-06 -1.448382e-05
3.204000e+00 -2.686725e-05 -5.223913e-13 3.758114e-06 -2.686725e-05
3.208000e+00 -4.981964e-05 -5.501035e-13 -3.595652e-06 -4.981964e-05
3.212000e+00 -8.197092e-05 -4.909840e-13 -8.813685e-06 -8.197092e-05
3.216000e+00 -1.147056e-04 -3.744128e-13 -8.856947e-06 -1.147056e-04
3.220000e+00 -1.376023e-04 -2.569399e-13 -5.108765e-06 -1.376023e-04
3.224000e+00 -1.486167e-04 -1.878366e-13 -7.872615e-07 -1.486167e-04
3.228000e+00 -1.457367e-04 -2.020346e-13 2.427563e-06 -1.457367e-04
3.232000e+00 -1.102474e-04 -2.961130e-13 4.742486e-06 -1.102474e-04
3.236000e+00 -1.946471e-05 -3.626481e-13 6.235206e-06 -1.946471e-05
3.240000e+00 1.168576e-04 -1.904496e-13 5.620298e-06 1.168576e-04
3.244000e+00 2.503883e-04 3.893980e-13 1.708994e-06 2.503883e-04
3.248000e+00 3.331364e-04 1.287238e-12 -4.012904e-06 3.331364e-04
3.252000e+00 3.497218e-04 2.158889e-12 -7.458779e-06 3.497218e-04
3.256000e+00 3.081030e-04 2.697567e-12 -5.518668e-06 3.081030e-04
3.260000e+00 2.199132e-04 2.718828e-12 8.268751e-07 2.199132e-04
3.264000e+00 1.030736e-04 2.146091e-12 7.347809e-06 1.030736e-04
3.268000e+00 -1.394396e-05 1.146570e-12 9.772715e-06 -1.394396e-05
3.272000e+00 -1.089394e-04 3.452125e-14 6.115228e-06 -1.089394e-04
3.276000e+00 -1.788133e-04 -9.486393e-13 -1.903832e-06 -1.788133e-04
3.280000e+00 -2.250494e-04 -1.670790e-12 -8.676145e-06 -2.250494e-04
3.284000e+00 -2.394427e-04 -2.107602e-12 -8.659012e-06 -2.394427e-04
3.288000e+00 -2.183527e-04 -2.298502e-12 -1.928690e-06 -2.183527e-04
3.292000e+00 -1.801773e-04 -2.263419e-12 5.667277e-06 -1.801773e-04
3.296000e+00 -1.517069e-04 -2.046324e-12 8.042658e-06 -1.517069e-04
3.300000e+00 -1.411652e-04 -1.749843e-12 3.959884e-06 -1.411652e-04
3.304000e+00 -1.381228e-04 -1.450691e-12 -2.918326e-06 -1.381228e-04
3.308000e+00 -1.352672e-04 -1.133574e-12 -8.027678e-06 -1.352672e-04
3.312000e+00 -1.340840e-04 -7.479079e-13 -9.342017e-06 -1.340840e-04
3.316000e+00 -1.316289e-04 -3.052739e-13 -7.607235e-06 -1.316289e-04
3.320000e+00 -1.195404e-04 1.231713e-13 -4.305448e-06 -1.195404e-04
3.324000e+00 -9.844868e-05 5.049982e-13 -7.841452e-08 -9.844868e-05
3.328000e+00 -7.934883e-05 8.734041e-13 4.508237e-06 -7.934883e-05
3.332000e+00 -6.701943e-05 1.234027e-12 7.989069e-06 -6.701943e-05
3.336000e+00 -5.392447e-05 1.521975e-12 9.346382e-06 -5.392447e-05
3.340000e+00 -3.539972e-05 1.641996e-12 9.169565e-06 -3.539972e-05
3.344000e+00 -1.857467e-05 1.521954e-12 8.284296e-06 -1.857468e-05
3.348000e+00 -9.220293e-06 1.162521e-12 6.201342e-06 -9.220294e-06
3.352000e+00 -1.974933e-06 6.720501e-13 1.702787e-06 -1.974934e-06
3.356000e+00 8.656248e-06 2.248930e-13 -4.924872e-06 8.656248e-06
3.360000e+00 1.882988e-05 -3.712166e-14 -1.081786e-05 1.882988e-05
3.364000e+00 2.460140e-05 -6.862603e-14 -1.291320e-05 2.460140e-05
3.368000e+00 3.075154e-05 8.444501e-14 -1.090046e-05 3.075154e-05
3.372000e+00 4.150116e-05 3.151672e-13 -6.769723e-06 4.150116e-05
3.376000e+00 5.062551e-05 4.820981e-13 -2.573371e-06 5.062551e-05
3.380000e+00 5.163528e-05 4.480045e-13 7.390199e-07 5.163528e-05
3.384000e+00 5.079296e-05 1.470526e-13 3.373906e-06 5.079296e-05
3.388000e+00 5.673688e-05 -3.602010e-13 5.569106e-06 5.673688e-05
3.392000e+00 6.316868e-05 -9.083509e-13 6.549538e-06 6.316868e-05
3.396000e+00 5.775315e-05 -1.326555e-12 5.883294e-06 5.775315e-05
3.400000e+00 4.431476e-05 -1.524430e-12 5.069212e-06 4.431476e-05
3.404000e+00 3.894524e-05 -1.490787e-12 5.879238e-06 3.894524e-05
3.408000e+00 4.554017e-05 -1.251694e-12 7.656751e-06 4.554017e-05
3.412000e+00 5.267285e-05 -8.640070e-13 7.738835e-06 5.267285e-05
3.416000e+00 5.444929e-05 -4.132675e-13 4.140938e-06 5.444929e-05
3.420000e+00 5.640709e-05 3.289150e-14 -2.796413e-06 5.640709e-05
3.424000e+00 5.943514e-05 4.639812e-13 -1.052983e-05 5.943514e-05
3.428000e+00 5.549098e-05 8.969217e-13 -1.578712e-05 5.549098e-05
3.432000e+00 4.324691e-05 1.313403e-12 -1.663752e-05 4.324691e-05
3.436000e+00 3.284839e-05 1.640932e-12 -1.324994e-05 3.284838e-05
3.440000e+00 2.982255e-05 1.788976e-12 -6.848755e-06 2.982255e-05
3.444000e+00 2.782434e-05 1.678380e-12 1.164571e-06 2.782434e-05
3.448000e+00 2.366966e-05 1.259664e-12 9.058272e-06 2.366966e-05
3.452000e+00 2.552714e-05 5.713083e-13 1.475969e-05 2.552714e-05
3.456000e+00 3.707597e-05 -2.101947e-13 1.639980e-05 3.707597e-05
3.460000e+00 4.677647e-05 -8.275950e-13 1.298434e-05 4.677647e-05
3.464000e+00 4.413896e-05 -1.097865e-12 5.134841e-06 4.413896e-05
3.468000e+00 3.595979e-05 -1.018747e-12 -4.298088e-06 3.595979e-05
3.472000e+00 3.493353e-05 -7.258699e-13 -1.084060e-05 3.493354e-05
3.476000e+00 4.069129e-05 -3.949570e-13 -1.122453e-05 4.069129e-05
3.480000e+00 4.425016e-05 -1.695447e-13 -6.275553e-06 4.425016e-05
3.484000e+00 4.477493e-05 -1.179932e-13 3.167711e-08 4.477493e-05
3.488000e+00 4.810592e-05 -2.106234e-13 4.483416e-06 4.810593e-05
3.492000e+00 5.246470e-05 -3.386546e-13 6.614388e-06 5.246470e-05
3.496000e+00 5.083544e-05 -3.839626e-13 7.221784e-06 5.083544e-05
3.500000e+00 4.645396e-05 -2.903813e-13 6.505365e-06 4.645396e-05
3.504000e+00 5.012322e-05 -7.330301e-14 4.020522e-06 5.012322e-05
3.508000e+00 6.136506e-05 2.241562e-13 -5.021507e-07 6.136506e-05
3.512000e+00 6.821230e-05 5.481677e-13 -6.251453e-06 6.821230e-05
3.516000e+00 6.715237e-05 8.209798e-13 -1.094815e-05 6.715237e-05
3.520000e+00 6.710984e-05 9.653817e-13 -1.223842e-05 6.710984e-05
3.524000e+00 7.112409e-05 9.454315e-13 -9.758091e-06 7.112409e-05
3.528000e+00 7.019990e-05 7.587021e-13 -5.232333e-06 7.019990e-05
3.532000e+00 6.062366e-05 4.135562e-13 -6.106479e-07 6.062366e-05
3.536000e+00 5.217421e-05 -3.775456e-14 3.306467e-06 5.217421e-05
3.540000e+00 5.101900e-05 -4.685720e-13 6.468254e-06 5.101900e-05
3.544000e+00 4.877496e-05 -7.404769e-13 8.687619e-06 4.877496e-05
3.548000e+00 3.904166e-05 -7.948107e-13 9.703117e-06 3.904166e-05
3.552000e+00 3.066687e-05 -6.574017e-13 9.396314e-06 3.066687e-05
3.556000e+00 3.153037e-05 -3.667296e-13 7.249605e-06 3.153037e-05
3.560000e+00 3.260174e-05 3.951746e-14 2.765570e-06 3.260174e-05
3.564000e+00 2.236415e-05 4.667185e-13 -3.013668e-06 2.236415e-05
3.568000e+00 5.216263e-06 7.677563e-13 -7.789614e-06 5.216263e-06
3.572000e+00 -7.774998e-06 8.320372e-13 -9.683613e-06 -7.774999e-06
3.576000e+00 -1.603114e-05 6.445623e-13 -7.841503e-06 -1.603114e-05
3.580000e+00 -2.466642e-05 2.780712e-13 -2.819570e-06 -2.466642e-05
3.584000e+00 -3.101672e-05 -1.375438e-13 2.774058e-06 -3.101672e-05
3.588000e+00 -2.946405e-05 -4.584303e-13 5.720684e-06 -2.946405e-05
3.592000e+00 -2.490688e-05 -5.958311e-13 4.985222e-06 -2.490688e-05
3.596000e+00 -2.823507e-05 -5.771811e-13 1.984112e-06 -2.823507e-05
3.600000e+00 -4.033833e-05 -5.391538e-13 -1.500496e-06 -4.033833e-05
3.604000e+00 -5.356694e-05 -6.170011e-13 -4.762675e-06 -5.356694e-05
3.608000e+00 -6.800021e-05 -8.222236e-13 -7.993252e-06 -6.800021e-05
3.612000e+00 -9.044865e-05 -1.043556e-12 -1.060521e-05 -9.044865e-05
3.616000e+00 -1.160724e-04 -1.149198e-12 -1.022435e-05 -1.160724e-04
3.620000e+00 -1.280296e-04 -1.046502e-12 -4.591040e-06 -1.280296e-04
3.624000e+00 -1.194708e-04 -6.834764e-13 5.710664e-06 -1.194708e-04
3.628000e+00 -1.019152e-04 -8.023467e-14 1.661046e-05 -1.019152e-04
3.632000e+00 -8.717227e-05 6.308146e-13 2.272373e-05 -8.717227e-05
3.636000e+00 -7.397807e-05 1.253085e-12 2.093486e-05 -7.397807e-05
3.640000e+00 -5.934387e-05 1.627420e-12 1.235358e-05 -5.934387e-05
3.644000e+00 -4.959283e-05 1.674660e-12 1.260021e-06 -4.959283e-05
3.648000e+00 -4.954971e-05 1.382307e-12 -7.798890e-06 -4.954972e-05
3.652000e+00 -5.212333e-05 8.152014e-13 -1.267859e-05 -5.212333e-05
3.656000e+00 -5.011812e-05 1.136927e-13 -1.403737e-05 -5.011812e-05
3.660000e+00 -4.869272e-05 -5.728257e-13 -1.346521e-05 -4.869272e-05
3.664000e+00 -5.462164e-05 -1.156865e-12 -1.189985e-05 -5.462164e-05
3.668000e+00 -6.273330e-05 -1.597166e-12 -9.769968e-06 -6.273330e-05
3.672000e+00 -6.541253e-05 -1.829494e-12 -7.400847e-06 -6.541253e-05
3.676000e+00 -6.674796e-05 -1.756029e-12 -4.730814e-06 -6.674795e-05
3.680000e+00 -7.370304e-05 -1.312831e-12 -1.420296e-06 -7.370304e-05
3.684000e+00 -8.008398e-05 -5.477723e-13 2.533977e-06 -8.008398e-05
3.688000e+00 -7.370351e-05 3.616499e-13 6.967122e-06 -7.370351e-05
3.692000e+00 -5.569342e-05 1.158138e-12 1.175398e-05 -5.569342e-05
3.696000e+00 -3.842217e-05 1.582702e-12 1.586024e-05 -3.842217e-05
3.700000e+00 -2.624356e-05 1.478656e-12 1.714548e-05 -2.624356e-05
3.704000e+00 -1.345392e-05 9.008262e-13 1.411957e-05 -1.345392e-05
3.708000e+00 -9.048093e-07 1.169425e-13 7.362473e-06 -9.048094e-07
3.712000e+00 1.706060e-06 -5.413699e-13 -1.128840e-06 1.706060e-06
3.716000e+00 -6.985912e-06 -8.522077e-13 -9.303177e-06 -6.985911e-06
3.720000e+00 -1.492674e-05 -7.598874e-13 -1.517251e-05 -1.492673e-05
3.724000e+00 -1.369854e-05 -3.383278e-13 -1.663619e-05 -1.369854e-05
3.728000e+00 -8.086040e-06 2.398723e-13 -1.276052e-05 -8.086040e-06
3.732000e+00 -2.575652e-06 7.281640e-13 -4.888683e-06 -2.575653e-06
3.736000e+00 7.942379e-06 9.084585e-13 3.945814e-06 7.942378e-06
3.740000e+00 2.451747e-05 7.315586e-13 1.003827e-05 2.451747e-05
3.744000e+00 3.495810e-05 3.237050e-13 1.047347e-05 3.495810e-05
3.748000e+00 3.114549e-05 -1.470631e-13 5.516622e-06 3.114549e-05
3.752000e+00 2.382444e-05 -5.526062e-13 -9.111784e-07 2.382444e-05
3.756000e+00 2.669256e-05 -7.664890e-13 -4.516423e-06 2.669256e-05
3.760000e+00 3.657317e-05 -6.715298e-13 -3.950430e-06 3.657317e-05
3.764000e+00 4.234435e-05 -2.699462e-13 -1.059875e-06 4.234435e-05
3.768000e+00 4.296154e-05 2.695307e-13 7.789973e-07 4.296154e-05
3.772000e+00 4.340521e-05 7.080317e-13 -5.914121e-07 4.340521e-05
3.776000e+00 4.084008e-05 8.576939e-13 -4.069769e-06 4.084008e-05
3.780000e+00 2.943610e-05 6.452491e-13 -6.440612e-06 2.943610e-05
3.784000e+00 1.553936e-05 1.378726e-13 -5.110246e-06 1.553936e-05
3.788000e+00 1.218381e-05 -4.528464e-13 -5.678746e-08 1.218381e-05
3.792000e+00 1.900298e-05 -8.434105e-13 5.972115e-06 1.900298e-05
3.796000e+00 2.381437e-05 -8.333480e-13 9.627108e-06 2.381437e-05
3.800000e+00 2.360120e-05 -4.065994e-13 9.434803e-06 2.360120e-05
3.804000e+00 2.703842e-05 3.034857e-13 6.136582e-06 2.703842e-05
3.808000e+00 3.587039e-05 1.091812e-12 1.637201e-06 3.587039e-05
3.812000e+00 4.090949e-05 1.711833e-12 -1.960457e-06 4.090949e-05
3.816000e+00 3.934482e-05 1.918749e-12 -3.276539e-06 3.934482e-05
3.820000e+00 3.977142e-05 1.582735e-12 -2.512956e-06 3.977142e-05
3.824000e+00 4.502566e-05 7.807594e-13 -1.363577e-06 4.502566e-05
3.828000e+00 4.562647e-05 -2.501302e-13 -1.455196e-06 4.562648e-05
3.832000e+00 3.755374e-05 -1.249862e-12 -2.553231e-06 3.755374e-05
3.836000e+00 3.108387e-05 -2.000073e-12 -3.162931e-06 3.108388e-05
3.840000e+00 3.272871e-05 -2.316170e-12 -2.828558e-06 3.272871e-05
3.844000e+00 3.348685e-05 -2.093849e-12 -2.397847e-06 3.348685e-05
3.848000e+00 2.501482e-05 -1.394391e-12 -2.641770e-06 2.501482e-05
3.852000e+00 1.359940e-05 -4.306044e-13 -3.556362e-06 1.359940e-05
3.856000e+00 7.917813e-06 5.406070e-13 -3.972877e-06 7.917813e-06
3.860000e+00 5.589955e-06 1.288288e-12 -1.950855e-06 5.589954e-06
3.864000e+00 2.868217e-06 1.636903e-12 3.014304e-06 2.868215e-06
3.868000e+00 4.764536e-06 1.529901e-12 8.087653e-06 4.764535e-06
3.872000e+00 1.223495e-05 1.083206e-12 8.899435e-06 1.223495e-05
3.876000e+00 1.160621e-05 5.154944e-13 4.061304e-06 1.160620e-05
3.880000e+00 -7.672924e-06 1.327137e-15 -3.069848e-06 -7.672924e-06
3.884000e+00 -3.312313e-05 -3.835034e-13 -7.295414e-06 -3.312313e-05
3.888000e+00 -4.263996e-05 -5.867513e-13 -5.739645e-06 -4.263996e-05
3.892000e+00 -3.291539e-05 -5.397186e-13 2.408127e-07 -3.291539e-05
3.896000e+00 -1.854074e-05 -2.429185e-13 6.816824e-06 -1.854074e-05
3.900000e+00 -6.754354e-06 1.518796e-13 1.117352e-05 -6.754354e-06
3.904000e+00 7.816300e-06 4.198790e-13 1.286215e-05 7.816299e-06
3.908000e+00 2.397231e-05 4.208215e-13 1.203521e-05 2.397231e-05
3.912000e+00 2.939024e-05 1.655898e-13 7.605887e-06 2.939024e-05
3.916000e+00 2.000125e-05 -2.274918e-13 -1.427655e-06 2.000125e-05
3.920000e+00 8.082791e-06 -5.932561e-13 -1.284571e-05 8.082791e-06
3.924000e+00 4.258717e-06 -7.676968e-13 -2.114353e-05 4.258718e-06
3.928000e+00 4.659129e-06 -6.518867e-13 -2.182103e-05 4.659129e-06
3.932000e+00 3.036188e-06 -2.698630e-13 -1.525268e-05 3.036188e-06
3.936000e+00 2.488218e-06 2.280511e-13 -5.624748e-06 2.488218e-06
3.940000e+00 5.403955e-06 6.326088e-13 2.897061e-06 5.403955e-06
3.944000e+00 3.428976e-06 7.564382e-13 7.946914e-06 3.428975e-06
3.948000e+00 -9.510413e-06 4.918755e-13 8.918663e-06 -9.510413e-06
3.952000e+00 -2.308258e-05 -1.256590e-13 7.099926e-06 -2.308258e-05
3.956000e+00 -2.352224e-05 -8.761392e-13 4.956983e-06 -2.352223e-05
3.960000e+00 -1.352583e-05 -1.430760e-12 4.259612e-06 -1.352583e-05
3.964000e+00 -5.604719e-06 -1.532949e-12 5.043538e-06 -5.604718e-06
3.968000e+00 -2.261312e-06 -1.138084e-12 6.361266e-06 -2.261311e-06
3.972000e+00 2.976744e-06 -3.980344e-13 7.315403e-06 2.976745e-06
3.976000e+00 9.877151e-06 4.571110e-13 7.104901e-06 9.877151e-06
3.980000e+00 1.249061e-05 1.211218e-12 5.078353e-06 1.249060e-05
3.984000e+00 1.286959e-05 1.712587e-12 1.191445e-06 1.286959e-05
3.988000e+00 1.700707e-05 1.933262e-12 -4.175472e-06 1.700707e-05
3.992000e+00 1.826511e-05 1.972785e-12 -1.050233e-05 1.826511e-05
3.996000e+00 2.736535e-06 1.930269e-12 -1.646786e-05 2.736533e-06
4.000000e+00 -2.746512e-05 1.768512e-12 -1.954142e-05 -2.746512e-05
4.004000e+00 -5.327468e-05 1.331891e-12 -1.725482e-05 -5.327469e-05
4.008000e+00 -6.367964e-05 4.929857e-13 -9.010186e-06 -6.367964e-05
4.012000e+00 -6.609430e-05 -7.366028e-13 3.021133e-06 -6.609430e-05
4.016000e+00 -6.904967e-05 -2.205821e-12 1.412511e-05 -6.904967e-05
4.020000e+00 -7.011251e-05 -3.647623e-12 1.938753e-05 -7.011251e-05
4.024000e+00 -6.664931e-05 -4.698530e-12 1.721177e-05 -6.664931e-05
4.028000e+00 -6.437646e-05 -4.988750e-12 1.001569e-05 -6.437646e-05
4.032000e+00 -6.593195e-05 -4.325636e-12 1.612102e-06 -6.593195e-05
4.036000e+00 -6.209325e-05 -2.794971e-12 -4.849771e-06 -6.209325e-05
4.040000e+00 -4.421422e-05 -7.066438e-13 -6.927749e-06 -4.421422e-05
4.044000e+00 -1.603640e-05 1.517872e-12 -3.266855e-06 -1.603641e-05
4.048000e+00 1.576110e-05 3.440990e-12 4.884154e-06 1.576109e-05
4.052000e+00 5.187950e-05 4.698379e-12 1.282452e-05 5.187950e-05
4.056000e+00 8.961738e-05 5.130944e-12 1.385785e-05 8.961737e-05
4.060000e+00 1.135941e-04 4.815153e-12 4.093364e-06 1.135941e-04
4.064000e+00 1.136435e-04 3.916157e-12 -1.265719e-05 1.136435e-04
4.068000e+00 1.025955e-04 2.617815e-12 -2.665183e-05 1.025955e-04
4.072000e+00 9.926353e-05 1.197964e-12 -2.980759e-05 9.926353e-05
4.076000e+00 1.018135e-04 -2.775516e-14 -2.099958e-05 1.018135e-04
4.080000e+00 9.515752e-05 -8.877883e-13 -5.370569e-06 9.515752e-05
4.084000e+00 7.816130e-05 -1.439221e-12 9.845243e-06 7.816130e-05
4.088000e+00 6.459532e-05 -1.827032e-12 1.940078e-05 6.459533e-05
4.092000e+00 5.945559e-05 -2.121356e-12 2.173011e-05 5.945559e-05
4.096000e+00 5.298233e-05 -2.300857e-12 1.793880e-05 5.298233e-05
4.100000e+00 3.999372e-05 -2.325159e-12 1.017548e-05 3.999372e-05
4.104000e+00 2.806064e-05 -2.149931e-12 1.332286e-06 2.806064e-05
4.108000e+00 2.174003e-05 -1.716006e-12 -5.132709e-06 2.174003e-05
4.112000e+00 1.450886e-05 -1.025119e-12 -6.799492e-06 1.450886e-05
4.116000e+00 2.374624e-06 -2.102936e-13 -4.332469e-06 2.374624e-06
4.120000e+00 -9.083426e-06 5.316746e-13 -1.415910e-06 -9.083426e-06
4.124000e+00 -1.765421e-05 1.061734e-12 -1.277691e-06 -1.765421e-05
4.128000e+00 -3.194499e-05 1.311434e-12 -3.586933e-06 -3.194499e-05
4.132000e+00 -5.762276e-05 1.248390e-12 -5.734263e-06 -5.762276e-05
4.136000e+00 -8.544649e-05 9.017069e-13 -5.706324e-06 -8.544649e-05
4.140000e+00 -1.034671e-04 3.996835e-13 -2.866162e-06 -1.034671e-04
4.144000e+00 -1.140881e-04 -8.900051e-14 2.291869e-06 -1.140881e-04
4.148000e+00 -1.273285e-04 -4.624887e-13 7.711156e-06 -1.273285e-04
4.152000e+00 -1.419955e-04 -7.089387e-13 9.993983e-06 -1.419955e-04
4.156000e+00 -1.423081e-04 -8.590306e-13 7.052196e-06 -1.423081e-04
4.160000e+00 -1.084390e-04 -9.172740e-13 6.090358e-07 -1.084390e-04
4.164000e+00 -2.619996e-05 -8.078705e-13 -5.088212e-06 -2.619996e-05
4.168000e+00 1.031363e-04 -3.946596e-13 -6.602787e-06 1.031363e-04
4.172000e+00 2.509119e-04 4.486170e-13 -4.040044e-06 2.509119e-04
4.176000e+00 3.644285e-04 1.701496e-12 -1.655113e-06 3.644285e-04
4.180000e+00 3.978552e-04 3.053966e-12 -3.673839e-06 3.978552e-04
4.184000e+00 3.440662e-04 3.986748e-12 -9.211021e-06 3.440662e-04
4.188000e+00 2.312343e-04 4.052063e-12 -1.332983e-05 2.312343e-04
4.192000e+00 9.397354e-05 3.138678e-12 -1.203671e-05 9.397353e-05
4.196000e+00 -4.123934e-05 1.487155e-12 -4.901546e-06 -4.123934e-05
4.200000e+00 -1.498643e-04 -4.832067e-13 5.937986e-06 -1.498643e-04
4.204000e+00 -2.125210e-04 -2.338546e-12 1.713547e-05 -2.125210e-04
4.208000e+00 -2.321741e-04 -3.761893e-12 2.440252e-05 -2.321741e-04
4.212000e+00 -2.317334e-04 -4.653903e-12 2.436593e-05 -2.317334e-04
4.216000e+00 -2.273568e-04 -5.102492e-12 1.741569e-05 -2.273568e-04
4.220000e+00 -2.170686e-04 -5.221368e-12 7.273134e-06 -2.170686e-04
4.224000e+00 -1.980665e-04 -5.012408e-12 -2.169700e-06 -1.980665e-04
4.228000e+00 -1.779434e-04 -4.379117e-12 -8.842545e-06 -1.779434e-04
4.232000e+00 -1.616983e-04 -3.226010e-12 -1.243986e-05 -1.616983e-04
4.236000e+00 -1.427234e-04 -1.529751e-12 -1.339077e-05 -1.427234e-04
4.240000e+00 -1.169717e-04 6.086882e-13 -1.197068e-05 -1.169717e-04
4.244000e+00 -9.463373e-05 2.902064e-12 -8.843834e-06 -9.463373e-05
4.248000e+00 -8.595386e-05 4.867334e-12 -5.898478e-06 -8.595386e-05
4.252000e+00 -8.383094e-05 5.975294e-12 -4.724781e-06 -8.383094e-05
4.256000e+00 -7.399978e-05 5.919105e-12 -4.499103e-06 -7.399978e-05
4.260000e+00 -5.635120e-05 4.770987e-12 -3.154245e-06 -5.635121e-05
4.264000e+00 -4.169643e-05 2.895661e-12 -4.971174e-07 -4.169643e-05
4.268000e+00 -3.272743e-05 7.564378e-13 1.640876e-06 -3.272744e-05
4.272000e+00 -2.297689e-05 -1.220133e-12 2.794078e-06 -2.297689e-05
4.276000e+00 -1.133194e-05 -2.712773e-12 5.147509e-06 -1.133194e-05
4.280000e+00 -3.068691e-06 -3.544248e-12 9.888914e-06 -3.068688e-06
4.284000e+00 2.977303e-06 -3.669712e-12 1.395609e-05 2.977307e-06
4.288000e+00 1.383738e-05 -3.119069e-12 1.244115e-05 1.383738e-05
4.292000e+00 2.740806e-05 -2.000928e-12 4.040102e-06 2.740806e-05
4.296000e+00 3.194459e-05 -5.859783e-13 -7.168773e-06 3.194459e-05
4.300000e+00 2.445371e-05 7.226793e-13 -1.502881e-05 2.445371e-05
4.304000e+00 1.731214e-05 1.619960e-12 -1.546514e-05 1.731214e-05
4.308000e+00 2.116083e-05 2.081953e-12 -8.723255e-06 2.116083e-05
4.312000e+00 3.322633e-05 2.296679e-12 1.252966e-06 3.322633e-05
4.316000e+00 4.882287e-05 2.424112e-12 9.935473e-06 4.882287e-05
4.320000e+00 7.019361e-05 2.466146e-12 1.438233e-05 7.019361e-05
4.324000e+00 9.382541e-05 2.337484e-12 1.278606e-05 9.382541e-05
4.328000e+00 1.031564e-04 1.941690e-12 4.872330e-06 1.031564e-04
4.332000e+00 8.858787e-05 1.146130e-12 -5.805231e-06 8.858787e-05
4.336000e+00 6.366417e-05 -1.524095e-13 -1.303049e-05 6.366417e-05
4.340000e+00 4.750957e-05 -1.788874e-12 -1.315797e-05 4.750958e-05
4.344000e+00 4.239299e-05 -3.285083e-12 -7.346426e-06 4.239300e-05
4.348000e+00 4.105391e-05 -4.122538e-12 8.470036e-07 4.105391e-05
4.352000e+00 4.352758e-05 -4.018683e-12 7.792715e-06 4.352758e-05
4.356000e+00 5.146894e-05 -2.993666e-12 1.058437e-05 5.146894e-05
4.360000e+00 5.540911e-05 -1.334989e-12 8.091405e-06 5.540911e-05
4.364000e+00 4.530897e-05 4.502301e-13 2.220206e-06 4.530897e-05
4.368000e+00 2.929294e-05 1.812277e-12 -2.829099e-06 2.929294e-05
4.372000e+00 2.513157e-05 2.462695e-12 -3.720597e-06 2.513156e-05
4.376000e+00 3.524156e-05 2.510425e-12 -6.302171e-07 3.524156e-05
4.380000e+00 4.569124e-05 2.282336e-12 2.990126e-06 4.569124e-05
4.384000e+00 4.816359e-05 2.049580e-12 2.948614e-06 4.816358e-05
4.388000e+00 4.698447e-05 1.913018e-12 -2.330597e-06 4.698446e-05
4.392000e+00 4.458178e-05 1.828289e-12 -9.776786e-06 4.458178e-05
4.396000e+00 3.667158e-05 1.652679e-12 -1.364131e-05 3.667158e-05
4.400000e+00 2.586361e-05 1.227150e-12 -1.030772e-05 2.586360e-05
4.404000e+00 2.440383e-05 5.233147e-13 -1.149644e-06 2.440383e-05
4.408000e+00 3.608150e-05 -2.942885e-13 8.908212e-06 3.608150e-05
4.412000e+00 4.857688e-05 -1.011805e-12 1.477930e-05 4.857688e-05
4.416000e+00 5.162528e-05 -1.552829e-12 1.357368e-05 5.162528e-05
4.420000e+00 5.143277e-05 -1.980730e-12 6.086415e-06 5.143277e-05
4.424000e+00 5.838597e-05 -2.294530e-12 -2.897260e-06 5.838598e-05
4.428000e+00 7.053490e-05 -2.322953e-12 -7.764609e-06 7.053490e-05
4.432000e+00 7.987772e-05 -1.859188e-12 -6.597480e-06 7.987773e-05
4.436000e+00 8.530752e-05 -8.472677e-13 -2.096909e-06 8.530752e-05
4.440000e+00 8.673319e-05 5.620640e-13 1.350785e-06 8.673319e-05
4.444000e+00 7.659052e-05 2.034213e-12 1.421001e-06 7.659052e-05
4.448000e+00 5.249373e-05 3.084579e-12 -3.709286e-07 5.249372e-05
4.452000e+00 2.977780e-05 3.257850e-12 -8.540480e-07 2.977780e-05
4.456000e+00 2.540351e-05 2.424359e-12 8.063409e-07 2.540351e-05
4.460000e+00 3.573560e-05 8.792273e-13 2.469009e-06 3.573560e-05
4.464000e+00 4.476110e-05 -8.360982e-13 1.969331e-06 4.476110e-05
4.468000e+00 4.754022e-05 -2.195902e-12 -6.397137e-07 4.754022e-05
4.472000e+00 4.984288e-05 -2.843161e-12 -3.450253e-06 4.984288e-05
4.476000e+00 4.987472e-05 -2.667447e-12 -4.506879e-06 4.987472e-05
4.480000e+00 3.854422e-05 -1.855904e-12 -3.354601e-06 3.854422e-05
4.484000e+00 1.796219e-05 -8.062959e-13 -1.097796e-06 1.796219e-05
4.488000e+00 2.896449e-06 1.176824e-13 8.932657e-07 2.896449e-06
4.492000e+00 2.037677e-08 7.852675e-13 2.099571e-06 2.037599e-08
4.496000e+00 2.525245e-08 1.258759e-12 2.681953e-06 2.525119e-08
4.500000e+00 -4.967696e-06 1.630819e-12 2.839845e-06 -4.967697e-06
4.504000e+00 -1.108451e-05 1.937971e-12 2.549689e-06 -1.108451e-05
4.508000e+00 -1.592911e-05 2.174425e-12 1.567845e-06 -1.592911e-05
4.512000e+00 -2.581106e-05 2.296058e-12 5.412463e-10 -2.581106e-05
4.516000e+00 -4.158042e-05 2.191390e-12 -1.351517e-06 -4.158042e-05
4.520000e+00 -5.290251e-05 1.717696e-12 -1.923355e-06 -5.290252e-05
4.524000e+00 -5.555260e-05 8.054436e-13 -1.924232e-06 -5.555260e-05
4.528000e+00 -6.032230e-05 -4.871705e-13 -1.528874e-06 -6.032230e-05
4.532000e+00 -7.497262e-05 -2.003691e-12 -4.224050e-07 -7.497262e-05
4.536000e+00 -8.989981e-05 -3.503685e-12 1.667639e-06 -8.989981e-05
4.540000e+00 -9.402146e-05 -4.638855e-12 4.089606e-06 -9.402145e-05
4.544000e+00 -9.398840e-05 -5.016617e-12 4.920299e-06 -9.398839e-05
4.548000e+00 -1.018489e-04 -4.405209e-12 2.610425e-06 -1.018489e-04
4.552000e+00 -1.125692e-04 -2.928350e-12 -1.670861e-06 -1.125692e-04
4.556000e+00 -1.114742e-04 -1.048774e-12 -4.539563e-06 -1.114742e-04
4.560000e+00 -9.751192e-05 6.679273e-13 -3.553301e-06 -9.751192e-05
4.564000e+00 -8.245425e-05 1.829266e-12 3.780562e-07 -8.245425e-05
4.568000e+00 -7.163706e-05 2.351424e-12 3.782633e-06 -7.163706e-05
4.572000e+00 -6.174387e-05 2.436443e-12 3.864242e-06 -6.174387e-05
4.576000e+00 -5.510543e-05 2.404574e-12 5.640489e-07 -5.510544e-05
4.580000e+00 -5.877528e-05 2.462599e-12 -4.078904e-06 -5.877528e-05
4.584000e+00 -6.896806e-05 2.597831e-12 -7.781008e-06 -6.896806e-05
4.588000e+00 -7.328743e-05 2.651202e-12 -9.685063e-06 -7.328743e-05
4.592000e+00 -6.991297e-05 2.426192e-12 -1.008352e-05 -6.991297e-05
4.596000e+00 -6.839422e-05 1.742589e-12 -8.299041e-06 -6.839422e-05
4.600000e+00 -6.999497e-05 5.175323e-13 -2.685920e-06 -6.999497e-05
4.604000e+00 -6.415507e-05 -1.105283e-12 6.435906e-06 -6.415507e-05
4.608000e+00 -4.835271e-05 -2.735635e-12 1.557403e-05 -4.835271e-05
4.612000e+00 -3.576573e-05 -3.913899e-12 2.015072e-05 -3.576572e-05
4.616000e+00 -3.632652e-05 -4.315396e-12 1.703804e-05 -3.632652e-05
4.620000e+00 -4.294232e-05 -3.845921e-12 6.794452e-06 -4.294232e-05
4.624000e+00 -4.420031e-05 -2.653997e-12 -5.072867e-06 -4.420030e-05
4.628000e+00 -3.915651e-05 -1.072997e-12 -1.142218e-05 -3.915651e-05
4.632000e+00 -3.013593e-05 5.120909e-13 -9.561500e-06 -3.013593e-05
4.636000e+00 -1.234271e-05 1.807911e-12 -2.705357e-06 -1.234271e-05
4.640000e+00 1.551023e-05 2.670274e-12 3.720769e-06 1.551023e-05
4.644000e+00 3.907004e-05 3.052624e-12 5.710670e-06 3.907003e-05
4.648000e+00 4.257661e-05 2.916645e-12 2.318764e-06 4.257661e-05
4.652000e+00 2.991683e-05 2.227595e-12 -4.213444e-06 2.991683e-05
4.656000e+00 1.796784e-05 1.075150e-12 -9.885969e-06 1.796784e-05
4.660000e+00 1.376912e-05 -2.516227e-13 -1.168612e-05 1.376912e-05
4.664000e+00 1.247943e-05 -1.376100e-12 -9.524227e-06 1.247943e-05
4.668000e+00 1.369994e-05 -2.024054e-12 -5.367523e-06 1.369994e-05
4.672000e+00 2.222127e-05 -2.099107e-12 -1.166745e-06 2.222127e-05
4.676000e+00 3.383307e-05 -1.642682e-12 2.140926e-06 3.383308e-05
4.680000e+00 3.807190e-05 -8.184254e-13 4.740588e-06 3.807190e-05
4.684000e+00 3.546329e-05 8.870653e-14 7.222236e-06 3.546329e-05
4.688000e+00 3.585605e-05 7.780134e-13 9.066594e-06 3.585605e-05
4.692000e+00 3.928131e-05 1.086745e-12 8.620273e-06 3.928131e-05
4.696000e+00 3.468121e-05 1.032752e-12 5.183726e-06 3.468121e-05
4.700000e+00 1.995890e-05 7.474207e-13 3.553373e-07 1.995890e-05
4.704000e+00 8.119432e-06 4.112593e-13 -2.865282e-06 8.119431e-06
4.708000e+00 8.301361e-06 2.021636e-13 -2.365482e-06 8.301361e-06
4.712000e+00 1.436260e-05 2.263774e-13 1.156043e-06 1.436260e-05
4.716000e+00 1.982080e-05 4.731561e-13 4.692773e-06 1.982080e-05
4.720000e+00 2.985507e-05 8.270284e-13 5.412886e-06 2.985507e-05
4.724000e+00 4.702661e-05 1.113750e-12 2.355955e-06 4.702661e-05
4.728000e+00 5.878801e-05 1.144860e-12 -3.434182e-06 5.878801e-05
4.732000e+00 5.367669e-05 7.840622e-13 -9.498990e-06 5.367669e-05
4.736000e+00 3.856071e-05 3.448215e-14 -1.359118e-05 3.856071e-05
4.740000e+00 2.651496e-05 -9.249252e-13 -1.470429e-05 2.651496e-05
4.744000e+00 1.911866e-05 -1.829562e-12 -1.179098e-05 1.911866e-05
4.748000e+00 1.303174e-05 -2.460120e-12 -4.008475e-06 1.303174e-05
4.752000e+00 1.255988e-05 -2.683124e-12 6.665358e-06 1.255988e-05
4.756000e+00 2.157028e-05 -2.444917e-12 1.590710e-05 2.157028e-05
4.760000e+00 3.047643e-05 -1.795261e-12 2.029043e-05 3.047643e-05
4.764000e+00 2.648717e-05 -8.943565e-13 1.873967e-05 2.648717e-05
4.768000e+00 1.329531e-05 5.198432e-14 1.231217e-05 1.329531e-05
4.772000e+00 5.935759e-06 9.044618e-13 3.502062e-06 5.935758e-06
4.776000e+00 8.765072e-06 1.644646e-12 -5.008772e-06 8.765071e-06
4.780000e+00 1.378376e-05 2.291874e-12 -1.113076e-05 1.378375e-05
4.784000e+00 1.852890e-05 2.784730e-12 -1.346889e-05 1.852890e-05
4.788000e+00 2.822383e-05 2.986695e-12 -1.196401e-05 2.822383e-05
4.792000e+00 3.957124e-05 2.800478e-12 -8.456208e-06 3.957124e-05
4.796000e+00 4.056713e-05 2.231315e-12 -5.121527e-06 4.056712e-05
4.800000e+00 3.030852e-05 1.354506e-12 -2.288444e-06 3.030852e-05
4.804000e+00 2.190437e-05 2.837467e-13 7.599531e-07 2.190437e-05
4.808000e+00 2.067207e-05 -8.291041e-13 3.271306e-06 2.067207e-05
4.812000e+00 1.676109e-05 -1.824078e-12 3.107741e-06 1.676109e-05
4.816000e+00 5.936090e-06 -2.602494e-12 -3.486037e-07 5.936092e-06
4.820000e+00 -1.273781e-07 -3.119195e-12 -4.378192e-06 -1.273749e-07
4.824000e+00 6.112196e-06 -3.291263e-12 -4.873049e-06 6.112200e-06
4.828000e+00 1.308109e-05 -2.960129e-12 -5.054583e-07 1.308109e-05
4.832000e+00 7.368476e-06 -1.999451e-12 5.599704e-06 7.368478e-06
4.836000e+00 -5.504563e-06 -4.739044e-13 9.247191e-06 -5.504563e-06
4.840000e+00 -1.158913e-05 1.289228e-12 9.296298e-06 -1.158913e-05
4.844000e+00 -1.115629e-05 2.788160e-12 7.399490e-06 -1.115629e-05
4.848000e+00 -1.496886e-05 3.552280e-12 5.213428e-06 -1.496887e-05
4.852000e+00 -2.370986e-05 3.343273e-12 3.517795e-06 -2.370987e-05
4.856000e+00 -2.827702e-05 2.253133e-12 2.818256e-06 -2.827702e-05
4.860000e+00 -2.734455e-05 6.638767e-13 2.958834e-06 -2.734455e-05
4.864000e+00 -2.717869e-05 -9.121383e-13 2.763291e-06 -2.717868e-05
4.868000e+00 -2.653831e-05 -2.025541e-12 7.705933e-07 -2.653831e-05
4.872000e+00 -1.927849e-05 -2.418578e-12 -4.032244e-06 -1.927848e-05
4.876000e+00 -9.512153e-06 -2.092951e-12 -1.104082e-05 -9.512151e-06
4.880000e+00 -7.508358e-06 -1.329702e-12 -1.701197e-05 -7.508357e-06
4.884000e+00 -1.197563e-05 -5.789040e-13 -1.781366e-05 -1.197563e-05
4.888000e+00 -1.215605e-05 -2.085116e-13 -1.195333e-05 -1.215605e-05
4.892000e+00 -7.947411e-06 -2.869689e-13 -2.083241e-06 -7.947411e-06
4.896000e+00 -1.082927e-05 -5.977491e-13 7.173613e-06 -1.082927e-05
4.900000e+00 -2.201896e-05 -8.240273e-13 1.231515e-05 -2.201896e-05
4.904000e+00 -2.863726e-05 -6.913257e-13 1.191031e-05 -2.863726e-05
4.908000e+00 -2.620447e-05 -4.376451e-14 6.714166e-06 -2.620447e-05
4.912000e+00 -2.674358e-05 1.076702e-12 -4.178747e-07 -2.674358e-05
4.916000e+00 -3.814943e-05 2.390493e-12 -5.915855e-06 -3.814943e-05
4.920000e+00 -5.130737e-05 3.464696e-12 -7.008241e-06 -5.130737e-05
4.924000e+00 -5.617936e-05 3.887916e-12 -2.660323e-06 -5.617937e-05
4.928000e+00 -5.690052e-05 3.429652e-12 5.481075e-06 -5.690053e-05
4.932000e+00 -6.008231e-05 2.116306e-12 1.312232e-05 -6.008231e-05
4.936000e+00 -5.975111e-05 2.375326e-13 1.576749e-05 -5.975111e-05
4.940000e+00 -4.695494e-05 -1.720002e-12 1.201171e-05 -4.695493e-05
4.944000e+00 -2.588680e-05 -3.247735e-12 4.047901e-06 -2.588680e-05
4.948000e+00 -6.858908e-06 -4.031068e-12 -4.836157e-06 -6.858904e-06
4.952000e+00 1.023985e-05 -4.021053e-12 -1.226270e-05 1.023986e-05
4.956000e+00 3.142371e-05 -3.350938e-12 -1.671798e-05 3.142371e-05
4.960000e+00 5.294748e-05 -2.252384e-12 -1.715412e-05 5.294748e-05
4.964000e+00 6.576656e-05 -1.025729e-12 -1.336852e-05 6.576656e-05
4.968000e+00 7.313042e-05 2.087099e-14 -6.170367e-06 7.313042e-05
4.972000e+00 8.759568e-05 7.198885e-13 3.051793e-06 8.759568e-05
4.976000e+00 1.096547e-04 1.149488e-12 1.201231e-05 1.096547e-04
4.980000e+00 1.242641e-04 1.557679e-12 1.681285e-05 1.242641e-04
4.984000e+00 1.213848e-04 2.162916e-12 1.366945e-05 1.213848e-04
4.988000e+00 1.064436e-04 2.956539e-12 3.034359e-06 1.064436e-04
4.992000e+00 8.696590e-05 3.656067e-12 -9.075790e-06 8.696590e-05
4.996000e+00 6.327154e-05 3.878071e-12 -1.534578e-05 6.327154e-05
5.000000e+00 3.865913e-05 3.375719e-12 -1.269163e-05 3.865912e-05
5.004000e+00 2.409791e-05 2.201342e-12 -3.935664e-06 2.409791e-05
5.008000e+00 2.322733e-05 7.004472e-13 5.220232e-06 2.322733e-05
5.012000e+00 2.481278e-05 -7.138705e-13 1.084295e-05 2.481279e-05
5.016000e+00 1.947650e-05 -1.824844e-12 1.252431e-05 1.947650e-05
5.020000e+00 1.254276e-05 -2.637470e-12 1.137039e-05 1.254277e-05
5.024000e+00 1.059852e-05 -3.182751e-12 7.849542e-06 1.059853e-05
5.028000e+00 7.143027e-06 -3.395895e-12 2.363888e-06 7.143030e-06
5.032000e+00 -6.298908e-06 -3.221417e-12 -3.070149e-06 -6.298905e-06
5.036000e+00 -2.484116e-05 -2.727431e-12 -5.574094e-06 -2.484116e-05
5.040000e+00 -3.907640e-05 -2.048442e-12 -4.358395e-06 -3.907640e-05
5.044000e+00 -5.170877e-05 -1.285504e-12 -1.933329e-06 -5.170877e-05
5.048000e+00 -7.223395e-05 -5.060331e-13 -1.625403e-06 -7.223395e-05
5.052000e+00 -1.005928e-04 2.237005e-13 -4.238109e-06 -1.005928e-04
5.056000e+00 -1.282343e-04 8.634680e-13 -7.593910e-06 -1.282343e-04
5.060000e+00 -1.475824e-04 1.411680e-12 -8.636846e-06 -1.475824e-04
5.064000e+00 -1.459409e-04 1.856058e-12 -5.706853e-06 -1.459409e-04
5.068000e+00 -1.000074e-04 2.169103e-12 1.452185e-07 -1.000074e-04
5.072000e+00 1.913240e-06 2.369131e-12 5.602881e-06 1.913238e-06
5.076000e+00 1.345247e-04 2.514254e-12 7.589188e-06 1.345247e-04
5.080000e+00 2.500984e-04 2.592993e-12 5.758458e-06 2.500984e-04
5.084000e+00 3.166796e-04 2.458372e-12 2.122593e-06 3.166796e-04
5.088000e+00 3.281824e-04 1.941566e-12 -1.345596e-06 3.281824e-04
5.092000e+00 2.846906e-04 1.018119e-12 -3.933908e-06 2.846906e-04
5.096000e+00 1.867041e-04 -1.846656e-13 -5.788962e-06 1.867041e-04
5.100000e+00 5.357472e-05 -1.496337e-12 -6.772150e-06 5.357472e-05
5.104000e+00 -7.278354e-05 -2.729941e-12 -5.438175e-06 -7.278354e-05
5.108000e+00 -1.572579e-04 -3.624635e-12 -2.194044e-07 -1.572579e-04
5.112000e+00 -1.966388e-04 -3.886435e-12 7.857773e-06 -1.966388e-04
5.116000e+00 -2.078920e-04 -3.356506e-12 1.483172e-05 -2.078920e-04
5.120000e+00 -2.035211e-04 -2.124944e-12 1.679667e-05 -2.035211e-04
5.124000e+00 -1.898554e-04 -4.993542e-13 1.280927e-05 -1.898554e-04
5.128000e+00 -1.769962e-04 1.078624e-12 4.976635e-06 -1.769962e-04
5.132000e+00 -1.719389e-04 2.121710e-12 -3.304803e-06 -1.719389e-04
5.136000e+00 -1.675151e-04 2.254063e-12 -9.308706e-06 -1.675151e-04
5.140000e+00 -1.537019e-04 1.414713e-12 -1.220643e-05 -1.537019e-04
5.144000e+00 -1.346958e-04 -6.226304e-14 -1.254612e-05 -1.346958e-04
5.148000e+00 -1.211988e-04 -1.595778e-12 -1.078976e-05 -1.211988e-04
5.152000e+00 -1.119345e-04 -2.610937e-12 -7.080554e-06 -1.119345e-04
5.156000e+00 -9.813426e-05 -2.727388e-12 -2.414530e-06 -9.813425e-05
5.160000e+00 -8.198306e-05 -1.872156e-12 1.215050e-06 -8.198306e-05
5.164000e+00 -7.364237e-05 -3.525806e-13 2.760705e-06 -7.364237e-05
5.168000e+00 -7.202354e-05 1.220122e-12 3.138435e-06 -7.202354e-05
5.172000e+00 -6.561719e-05 2.217557e-12 3.532032e-06 -6.561719e-05
5.176000e+00 -5.178103e-05 2.302543e-12 4.097287e-06 -5.178103e-05
5.180000e+00 -3.883875e-05 1.534464e-12 4.765471e-06 -3.883876e-05
5.184000e+00 -2.882543e-05 2.825018e-13 5.560038e-06 -2.882543e-05
5.188000e+00 -1.444326e-05 -9.196411e-13 5.685720e-06 -1.444326e-05
5.192000e+00 4.329111e-06 -1.554068e-12 3.768261e-06 4.329113e-06
5.196000e+00 1.638401e-05 -1.326963e-12 -3.762259e-07 1.638402e-05
5.200000e+00 1.780001e-05 -2.959249e-13 -4.864084e-06 1.780001e-05
5.204000e+00 1.970561e-05 1.183247e-12 -7.126243e-06 1.970561e-05
5.208000e+00 3.044223e-05 2.624212e-12 -6.011699e-06 3.044223e-05
5.212000e+00 4.301514e-05 3.554340e-12 -2.531267e-06 4.301513e-05
5.216000e+00 4.890030e-05 3.617042e-12 1.068026e-06 4.890030e-05
5.220000e+00 5.200131e-05 2.689546e-12 3.033240e-06 5.200131e-05
5.224000e+00 5.820545e-05 9.730965e-13 3.228055e-06 5.820545e-05
5.228000e+00 6.208085e-05 -1.070483e-12 2.542212e-06 6.208085e-05
5.232000e+00 5.727598e-05 -2.918540e-12 1.664891e-06 5.727599e-05
5.236000e+00 5.122505e-05 -4.147720e-12 9.052704e-07 5.122506e-05
5.240000e+00 5.444984e-05 -4.485710e-12 4.376114e-07 5.444984e-05
5.244000e+00 6.226777e-05 -3.860402e-12 7.886253e-08 6.226778e-05
5.248000e+00 6.288260e-05 -2.465152e-12 -6.398766e-07 6.288260e-05
5.252000e+00 5.751766e-05 -7.159962e-13 -1.972898e-06 5.751766e-05
5.256000e+00 5.621763e-05 9.301138e-13 -3.590437e-06 5.621762e-05
5.260000e+00 5.860281e-05 2.139916e-12 -4.513398e-06 5.860281e-05
5.264000e+00 5.517223e-05 2.743432e-12 -3.949361e-06 5.517223e-05
5.268000e+00 4.547278e-05 2.719539e-12 -2.355282e-06 4.547278e-05
5.272000e+00 3.982518e-05 2.193824e-12 -7.649593e-07 3.982518e-05
5.276000e+00 4.243012e-05 1.406418e-12 7.988385e-07 4.243011e-05
5.280000e+00 4.641849e-05 6.193128e-13 3.072736e-06 4.641849e-05
5.284000e+00 4.757990e-05 3.825480e-14 5.560578e-06 4.757990e-05
5.288000e+00 4.953821e-05 -1.930419e-13 5.997769e-06 4.953821e-05
5.292000e+00 5.296314e-05 -1.556522e-14 2.993809e-06 5.296314e-05
5.296000e+00 5.332889e-05 4.749283e-13 -1.522641e-06 5.332889e-05
5.300000e+00 5.251816e-05 1.024569e-12 -3.923354e-06 5.251816e-05
5.304000e+00 5.964880e-05 1.332307e-12 -2.314933e-06 5.964880e-05
5.308000e+00 7.506607e-05 1.180754e-12 2.088765e-06 7.506607e-05
5.312000e+00 8.493445e-05 5.067357e-13 5.846700e-06 8.493445e-05
5.316000e+00 7.945301e-05 -5.848037e-13 5.707455e-06 7.945301e-05
5.320000e+00 6.607702e-05 -1.822581e-12 1.308739e-06 6.607702e-05
5.324000e+00 5.564995e-05 -2.812616e-12 -4.594076e-06 5.564995e-05
5.328000e+00 4.634131e-05 -3.167014e-12 -8.804886e-06 4.634132e-05
5.332000e+00 3.276180e-05 -2.681959e-12 -9.881486e-06 3.276180e-05
5.336000e+00 2.100992e-05 -1.444254e-12 -7.762726e-06 2.100992e-05
5.340000e+00 2.050375e-05 2.007925e-13 -2.917804e-06 2.050375e-05
5.344000e+00 2.774910e-05 1.769930e-12 3.300140e-06 2.774910e-05
5.348000e+00 3.258106e-05 2.784534e-12 8.581383e-06 3.258106e-05
5.352000e+00 3.503678e-05 2.916396e-12 1.085646e-05 3.503678e-05
5.356000e+00 4.139645e-05 2.121400e-12 9.429690e-06 4.139645e-05
5.360000e+00 4.823886e-05 6.726027e-13 5.108803e-06 4.823886e-05
5.364000e+00 4.627645e-05 -9.489322e-13 -2.119338e-07 4.627645e-05
5.368000e+00 3.746976e-05 -2.225283e-12 -4.356489e-06 3.746977e-05
5.372000e+00 3.276057e-05 -2.742522e-12 -5.998829e-06 3.276057e-05
5.376000e+00 3.368262e-05 -2.305112e-12 -5.198943e-06 3.368262e-05
5.380000e+00 3.136522e-05 -1.037998e-12 -2.971756e-06 3.136522e-05
5.384000e+00 2.431671e-05 6.229773e-13 -6.061783e-07 2.431671e-05
5.388000e+00 2.158127e-05 2.119147e-12 8.021929e-07 2.158127e-05
5.392000e+00 2.521962e-05 3.016366e-12 7.683029e-07 2.521961e-05
5.396000e+00 2.478167e-05 3.136920e-12 -2.311502e-07 2.478166e-05
5.400000e+00 1.447562e-05 2.536077e-12 -1.115155e-06 1.447562e-05
5.404000e+00 2.110818e-06 1.422442e-12 -1.265208e-06 2.110817e-06
5.408000e+00 -5.842448e-06 8.988745e-14 -1.043958e-06 -5.842448e-06
5.412000e+00 -1.478377e-05 -1.141850e-12 -1.077240e-06 -1.478377e-05
5.416000e+00 -2.846972e-05 -2.006720e-12 -1.305109e-06 -2.846972e-05
5.420000e+00 -3.801979e-05 -2.363589e-12 -1.035754e-06 -3.801979e-05
5.424000e+00 -3.643267e-05 -2.224458e-12 1.299747e-07 -3.643267e-05
5.428000e+00 -3.286747e-05 -1.729373e-12 1.631120e-06 -3.286747e-05
5.432000e+00 -3.918833e-05 -1.076080e-12 2.443903e-06 -3.918833e-05
5.436000e+00 -5.184385e-05 -4.386361e-13 2.208855e-06 -5.184385e-05
5.440000e+00 -6.048713e-05 8.114150e-14 1.576249e-06 -6.048713e-05
5.444000e+00 -6.578360e-05 4.433662e-13 1.459694e-06 -6.578360e-05
5.448000e+00 -7.448746e-05 6.346401e-13 2.020533e-06 -7.448746e-05
5.452000e+00 -8.385695e-05 6.620572e-13 2.473277e-06 -8.385695e-05
5.456000e+00 -8.624724e-05 5.697162e-13 1.913905e-06 -8.624724e-05
5.460000e+00 -8.500373e-05 4.258695e-13 4.564522e-08 -8.500373e-05
5.464000e+00 -9.014178e-05 2.801510e-13 -2.702967e-06 -9.014178e-05
5.468000e+00 -9.978144e-05 1.393387e-13 -5.088798e-06 -9.978144e-05
5.472000e+00 -1.007993e-04 -2.149331e-14 -5.087868e-06 -1.007993e-04
5.476000e+00 -8.849120e-05 -2.294171e-13 -1.149407e-06 -8.849120e-05
5.480000e+00 -7.210377e-05 -4.704771e-13 5.567382e-06 -7.210377e-05
5.484000e+00 -5.926591e-05 -6.617736e-13 1.085428e-05 -5.926591e-05
5.488000e+00 -4.872530e-05 -6.843981e-13 1.034954e-05 -4.872530e-05
5.492000e+00 -4.171537e-05 -4.592431e-13 3.022638e-06 -4.171537e-05
5.496000e+00 -4.519878e-05 -2.712465e-14 -7.515709e-06 -4.519878e-05
5.500000e+00 -5.716114e-05 4.367727e-13 -1.504099e-05 -5.716114e-05
5.504000e+00 -6.283252e-05 7.339960e-13 -1.530035e-05 -6.283252e-05
5.508000e+00 -5.417376e-05 7.947029e-13 -9.286253e-06 -5.417376e-05
5.512000e+00 -4.135517e-05 7.027305e-13 -1.956058e-06 -4.135517e-05
5.516000e+00 -3.622966e-05 5.707889e-13 2.251903e-06 -3.622966e-05
5.520000e+00 -3.584440e-05 4.290754e-13 2.831712e-06 -3.584440e-05
5.524000e+00 -3.264212e-05 2.353752e-13 2.480020e-06 -3.264213e-05
5.528000e+00 -2.954936e-05 -3.917706e-14 3.662382e-06 -2.954936e-05
5.532000e+00 -3.154852e-05 -3.421479e-13 6.483056e-06 -3.154852e-05
5.536000e+00 -3.192008e-05 -5.512082e-13 9.226999e-06 -3.192008e-05
5.540000e+00 -2.159632e-05 -5.544749e-13 1.012876e-05 -2.159632e-05
5.544000e+00 -5.426816e-06 -3.421858e-13 8.625694e-06 -5.426815e-06
5.548000e+00 4.662091e-06 -3.559445e-14 5.256243e-06 4.662091e-06
5.552000e+00 7.662165e-06 1.767567e-13 9.419157e-07 7.662165e-06
5.556000e+00 1.091660e-05 1.505362e-13 -3.368150e-06 1.091660e-05
5.560000e+00 1.373479e-05 -1.325428e-13 -6.773513e-06 1.373479e-05
5.564000e+00 9.463719e-06 -5.542237e-13 -8.494395e-06 9.463720e-06
5.568000e+00 2.272466e-06 -9.137181e-13 -8.042307e-06 2.272467e-06
5.572000e+00 4.945350e-06 -1.019803e-12 -5.580011e-06 4.945351e-06
5.576000e+00 1.864065e-05 -7.815910e-13 -2.065138e-06 1.864065e-05
5.580000e+00 3.042956e-05 -2.602207e-13 1.195619e-06 3.042956e-05
5.584000e+00 3.304496e-05 3.507698e-13 2.939671e-06 3.304496e-05
5.588000e+00 3.215576e-05 8.199494e-13 2.128629e-06 3.215576e-05
5.592000e+00 3.147753e-05 9.884988e-13 -1.169853e-06 3.147753e-05
5.596000e+00 2.608996e-05 8.258266e-13 -5.036623e-06 2.608996e-05
5.600000e+00 1.595790e-05 4.229918e-13 -6.760991e-06 1.595790e-05
5.604000e+00 1.177890e-05 -4.330392e-14 -4.803950e-06 1.177890e-05
5.608000e+00 1.912515e-05 -3.682718e-13 2.056949e-07 1.912515e-05
5.612000e+00 2.861092e-05 -4.032067e-13 5.817897e-06 2.861092e-05
5.616000e+00 3.056899e-05 -1.212568e-13 9.061060e-06 3.056899e-05
5.620000e+00 2.887095e-05 3.848352e-13 8.298152e-06 2.887095e-05
5.624000e+00 3.055713e-05 9.580775e-13 4.387026e-06 3.055713e-05
5.628000e+00 3.146482e-05 1.432086e-12 -2.890832e-07 3.146482e-05
5.632000e+00 2.456654e-05 1.658635e-12 -3.606945e-06 2.456654e-05
5.636000e+00 1.558226e-05 1.531267e-12 -4.142349e-06 1.558226e-05
5.640000e+00 1.588791e-05 1.019644e-12 -1.416317e-06 1.588791e-05
5.644000e+00 2.400683e-05 1.974216e-13 3.069351e-06 2.400683e-05
5.648000e+00 2.868454e-05 -7.634840e-13 6.108645e-06 2.868454e-05
5.652000e+00 2.748208e-05 -1.638025e-12 5.193851e-06 2.748208e-05
5.656000e+00 2.757456e-05 -2.216127e-12 7.500420e-07 2.757456e-05
5.660000e+00 2.984174e-05 -2.371160e-12 -4.125679e-06 2.984174e-05
5.664000e+00 2.769248e-05 -2.107947e-12 -6.180918e-06 2.769249e-05
5.668000e+00 2.195226e-05 -1.557064e-12 -4.538483e-06 2.195227e-05
5.672000e+00 2.132614e-05 -8.956038e-13 -1.271536e-06 2.132614e-05
5.676000e+00 2.605890e-05 -2.544498e-13 5.741261e-07 2.605890e-05
5.680000e+00 2.586784e-05 2.968704e-13 -1.875265e-07 2.586784e-05
5.684000e+00 1.727069e-05 7.020183e-13 -2.289524e-06 1.727069e-05
5.688000e+00 9.129234e-06 9.061355e-13 -3.947976e-06 9.129233e-06
5.692000e+00 6.843397e-06 9.044971e-13 -4.209449e-06 6.843396e-06
5.696000e+00 4.896230e-06 7.744170e-13 -2.550062e-06 4.896229e-06
5.700000e+00 9.835936e-07 6.458453e-13 1.103164e-06 9.835929e-07
5.704000e+00 3.522891e-06 6.492424e-13 5.492547e-06 3.522891e-06
5.708000e+00 1.611147e-05 8.688610e-13 8.193530e-06 1.611147e-05
5.712000e+00 2.681977e-05 1.283437e-12 7.298855e-06 2.681977e-05
5.716000e+00 2.392597e-05 1.723005e-12 3.135184e-06 2.392597e-05
5.720000e+00 1.201353e-05 1.924905e-12 -1.879267e-06 1.201353e-05
5.724000e+00 1.397996e-06 1.679217e-12 -5.179956e-06 1.397994e-06
5.728000e+00 -8.033910e-06 9.415098e-13 -5.635411e-06 -8.033911e-06
5.732000e+00 -1.962078e-05 -1.535676e-13 -3.694209e-06 -1.962078e-05
5.736000e+00 -2.616589e-05 -1.341839e-12 -6.713086e-07 -2.616589e-05
5.740000e+00 -1.894551e-05 -2.305207e-12 2.123585e-06 -1.894551e-05
5.744000e+00 -4.383377e-06 -2.776681e-12 3.824050e-06 -4.383374e-06
5.748000e+00 3.379056e-06 -2.643730e-12 3.919212e-06 3.379059e-06
5.752000e+00 2.517906e-06 -1.984745e-12 2.420545e-06 2.517908e-06
5.756000e+00 2.256103e-06 -1.018518e-12 3.960216e-07 2.256104e-06
5.760000e+00 4.897483e-06 -2.150070e-14 -6.603995e-07 4.897483e-06
5.764000e+00 4.079843e-06 7.515700e-13 -4.761990e-07 4.079842e-06
5.768000e+00 4.737702e-07 1.135777e-12 -5.541780e-08 4.737691e-07
5.772000e+00 3.621564e-06 1.093881e-12 -5.778429e-08 3.621562e-06
5.776000e+00 1.516500e-05 7.117876e-13 -1.305040e-07 1.516500e-05
5.780000e+00 2.439768e-05 1.606438e-13 1.092295e-07 2.439768e-05
5.784000e+00 2.470704e-05 -3.525874e-13 1.050581e-07 2.470704e-05
5.788000e+00 2.119836e-05 -6.361046e-13 -1.167391e-06 2.119836e-05
5.792000e+00 1.714226e-05 -5.715403e-13 -3.714497e-06 1.714226e-05
5.796000e+00 6.601452e-06 -1.665782e-13 -6.051307e-06 6.601452e-06
5.800000e+00 -1.221313e-05 4.430288e-13 -6.540611e-06 -1.221313e-05
5.804000e+00 -2.881717e-05 1.057608e-12 -4.640085e-06 -2.881717e-05
5.808000e+00 -3.488372e-05 1.494212e-12 -9.030187e-07 -3.488372e-05
5.812000e+00 -3.643734e-05 1.628083e-12 3.342152e-06 -3.643734e-05
5.816000e+00 -4.187460e-05 1.399262e-12 6.417754e-06 -4.187461e-05
5.820000e+00 -4.804595e-05 8.256040e-13 6.981683e-06 -4.804595e-05
5.824000e+00 -4.967782e-05 2.403560e-14 4.745376e-06 -4.967782e-05
5.828000e+00 -5.238795e-05 -8.050816e-13 1.110268e-06 -5.238795e-05
5.832000e+00 -6.265000e-05 -1.443423e-12 -1.349287e-06 -6.265000e-05
5.836000e+00 -7.286765e-05 -1.713941e-12 -9.588141e-07 -7.286765e-05
5.840000e+00 -7.037100e-05 -1.509139e-12 1.553439e-06 -7.037100e-05
5.844000e+00 -5.547308e-05 -8.331089e-13 3.782938e-06 -5.547308e-05
5.848000e+00 -3.760593e-05 1.409002e-13 3.637162e-06 -3.760593e-05
5.852000e+00 -1.882423e-05 1.080132e-12 6.787697e-07 -1.882423e-05
5.856000e+00 4.857296e-06 1.614280e-12 -3.838702e-06 4.857295e-06
5.860000e+00 2.956878e-05 1.498825e-12 -7.456871e-06 2.956878e-05
5.864000e+00 4.605000e-05 7.201347e-13 -7.761429e-06 4.605000e-05
5.868000e+00 5.496939e-05 -4.853604e-13 -4.460614e-06 5.496939e-05
5.872000e+00 6.628930e-05 -1.690578e-12 4.574855e-07 6.628930e-05
5.876000e+00 8.286969e-05 -2.433176e-12 4.952125e-06 8.286969e-05
5.880000e+00 9.714616e-05 -2.440928e-12 8.158421e-06 9.714616e-05
5.884000e+00 1.056017e-04 -1.773813e-12 9.647965e-06 1.056017e-04
5.888000e+00 1.130873e-04 -7.516894e-13 8.558934e-06 1.130873e-04
5.892000e+00 1.187953e-04 2.628738e-13 3.808799e-06 1.187953e-04
5.896000e+00 1.121744e-04 1.043812e-12 -4.425300e-06 1.121744e-04
5.900000e+00 9.011663e-05 1.555546e-12 -1.325767e-05 9.011663e-05
5.904000e+00 6.548166e-05 1.892775e-12 -1.808958e-05 6.548165e-05
5.908000e+00 4.999209e-05 2.151080e-12 -1.602817e-05 4.999209e-05
5.912000e+00 4.006438e-05 2.323813e-12 -8.195974e-06 4.006437e-05
5.916000e+00 2.835784e-05 2.297927e-12 1.503861e-06 2.835784e-05
5.920000e+00 1.786671e-05 1.942633e-12 9.331849e-06 1.786671e-05
5.924000e+00 1.336044e-05 1.227112e-12 1.322328e-05 1.336044e-05
5.928000e+00 8.437061e-06 2.735332e-13 1.259155e-05 8.437060e-06
5.932000e+00 -5.814950e-06 -6.936500e-13 8.293474e-06 -5.814949e-06
5.936000e+00 -2.634987e-05 -1.455384e-12 2.766063e-06 -2.634987e-05
5.940000e+00 -4.549197e-05 -1.878240e-12 -1.228732e-06 -4.549197e-05
5.944000e+00 -6.594931e-05 -1.948573e-12 -2.569840e-06 -6.594931e-05
5.948000e+00 -9.421077e-05 -1.766367e-12 -2.128321e-06 -9.421077e-05
5.952000e+00 -1.247825e-04 -1.493305e-12 -1.312518e-06 -1.247825e-04
5.956000e+00 -1.464765e-04 -1.270565e-12 -7.403650e-07 -1.464765e-04
5.960000e+00 -1.595425e-04 -1.157117e-12 -1.231039e-08 -1.595425e-04
5.964000e+00 -1.676131e-04 -1.129301e-12 1.725258e-06 -1.676131e-04
5.968000e+00 -1.537415e-04 -1.106713e-12 4.473163e-06 -1.537415e-04
5.972000e+00 -8.757618e-05 -9.638280e-13 6.291316e-06 -8.757618e-05
5.976000e+00 3.536322e-05 -5.535754e-13 4.529685e-06 3.536322e-05
5.980000e+00 1.784282e-04 2.041519e-13 -1.251069e-06 1.784282e-04
5.984000e+00 2.947914e-04 1.188646e-12 -8.194270e-06 2.947914e-04
5.988000e+00 3.582797e-04 2.099033e-12 -1.215598e-05 3.582797e-04
5.992000e+00 3.600558e-04 2.628915e-12 -1.086341e-05 3.600558e-04
5.996000e+00 2.982325e-04 2.567770e-12 -5.703747e-06 2.982325e-04
6.000000e+00 1.862034e-04 1.902205e-12 -4.172372e-07 1.862034e-04
6.004000e+00 5.668256e-05 8.855652e-13 2.157845e-06 5.668256e-05
6.008000e+00 -5.879443e-05 -1.135978e-13 1.943770e-06 -5.879443e-05
6.012000e+00 -1.487813e-04 -8.040900e-13 7.498241e-07 -1.487813e-04
6.016000e+00 -2.132083e-04 -1.054492e-12 2.852597e-07 -2.132083e-04
6.020000e+00 -2.478573e-04 -8.985825e-13 1.091649e-06 -2.478573e-04
6.024000e+00 -2.504621e-04 -4.701610e-13 2.800083e-06 -2.504621e-04
6.028000e+00 -2.329937e-04 6.632241e-14 4.693193e-06 -2.329937e-04
6.032000e+00 -2.122371e-04 5.326484e-13 5.929892e-06 -2.122371e-04
6.036000e+00 -1.925148e-04 7.632478e-13 5.716026e-06 -1.925148e-04
6.040000e+00 -1.702933e-04 6.704410e-13 3.771411e-06 -1.702933e-04
6.044000e+00 -1.495172e-04 2.717364e-13 9.341620e-07 -1.495172e-04
6.048000e+00 -1.375305e-04 -3.586836e-13 -1.228889e-06 -1.375305e-04
6.052000e+00 -1.303542e-04 -1.120666e-12 -1.954796e-06 -1.303542e-04
6.056000e+00 -1.169089e-04 -1.847200e-12 -1.674175e-06 -1.169089e-04
6.060000e+00 -9.632994e-05 -2.307522e-12 -9.884071e-07 -9.632994e-05
6.064000e+00 -7.808987e-05 -2.317395e-12 -4.649428e-07 -7.808987e-05
6.068000e+00 -6.509564e-05 -1.852982e-12 -8.140992e-07 -6.509564e-05
6.072000e+00 -5.027803e-05 -1.069785e-12 -2.181168e-06 -5.027802e-05
6.076000e+00 -3.213530e-05 -2.348940e-13 -3.758754e-06 -3.213530e-05
6.080000e+00 -1.935477e-05 3.870462e-13 -4.497920e-06 -1.935477e-05
6.084000e+00 -1.498662e-05 6.445695e-13 -3.773765e-06 -1.498663e-05
6.088000e+00 -9.620538e-06 5.513539e-13 -1.401693e-06 -9.620539e-06
6.092000e+00 2.460197e-06 2.688839e-13 2.105156e-06 2.460197e-06
6.096000e+00 1.282191e-05 4.412692e-14 5.059654e-06 1.282191e-05
6.100000e+00 1.361161e-05 1.202418e-13 5.448248e-06 1.361161e-05
6.104000e+00 1.147785e-05 6.325447e-13 2.876759e-06 1.147785e-05
6.108000e+00 1.622858e-05 1.529262e-12 -8.967996e-07 1.622857e-05
6.112000e+00 2.559001e-05 2.562643e-12 -3.569588e-06 2.559001e-05
6.116000e+00 3.292084e-05 3.365132e-12 -3.962511e-06 3.292083e-05
6.120000e+00 4.082366e-05 3.586138e-12 -2.355918e-06 4.082365e-05
6.124000e+00 5.400252e-05 3.026807e-12 1.274808e-07 5.400252e-05
6.128000e+00 6.643169e-05 1.717229e-12 2.391413e-06 6.643169e-05
6.132000e+00 6.944238e-05 -8.341369e-14 3.815881e-06 6.944238e-05
6.136000e+00 6.668080e-05 -1.940829e-12 4.091701e-06 6.668080e-05
6.140000e+00 6.732333e-05 -3.344718e-12 2.961001e-06 6.732334e-05
6.144000e+00 6.904966e-05 -3.869279e-12 3.202039e-07 6.904966e-05
6.148000e+00 6.221026e-05 -3.364022e-12 -3.342666e-06 6.221027e-05
6.152000e+00 4.821564e-05 -2.053833e-12 -6.713015e-06 4.821565e-05
6.156000e+00 3.926164e-05 -4.578813e-13 -7.949300e-06 3.926164e-05
6.160000e+00 4.037422e-05 8.200105e-13 -5.490184e-06 4.037422e-05
6.164000e+00 4.481268e-05 1.317437e-12 4.448999e-07 4.481267e-05
6.168000e+00 4.800376e-05 8.926424e-13 6.997842e-06 4.800376e-05
6.172000e+00 5.318729e-05 -1.969476e-13 1.040980e-05 5.318729e-05
6.176000e+00 5.972017e-05 -1.397831e-12 8.939733e-06 5.972018e-05
6.180000e+00 5.906169e-05 -2.128125e-12 4.022781e-06 5.906169e-05
6.184000e+00 4.916883e-05 -2.044790e-12 -1.160577e-06 4.916883e-05
6.188000e+00 4.013094e-05 -1.139986e-12 -4.396387e-06 4.013094e-05
6.192000e+00 3.801451e-05 3.344640e-13 -5.680147e-06 3.801451e-05
6.196000e+00 3.597035e-05 1.981263e-12 -5.670099e-06 3.597034e-05
6.200000e+00 2.918901e-05 3.335638e-12 -4.101714e-06 2.918901e-05
6.204000e+00 2.551343e-05 3.970468e-12 -8.347919e-07 2.551342e-05
6.208000e+00 3.155328e-05 3.657875e-12 2.611530e-06 3.155328e-05
6.212000e+00 4.008310e-05 2.470347e-12 4.042519e-06 4.008310e-05
6.216000e+00 4.254163e-05 7.361704e-13 2.776940e-06 4.254163e-05
6.220000e+00 4.416544e-05 -1.085437e-12 1.556568e-07 4.416544e-05
6.224000e+00 5.404442e-05 -2.520075e-12 -1.794762e-06 5.404443e-05
6.228000e+00 6.785372e-05 -3.182546e-12 -2.001267e-06 6.785373e-05
6.232000e+00 7.404286e-05 -2.883023e-12 -1.052056e-06 7.404287e-05
6.236000e+00 7.168271e-05 -1.705217e-12 -3.221515e-07 7.168271e-05
6.240000e+00 6.814866e-05 -9.842443e-15 -5.747898e-07 6.814866e-05
6.244000e+00 6.340914e-05 1.659173e-12 -1.654539e-06 6.340913e-05
6.248000e+00 5.237999e-05 2.747761e-12 -2.666192e-06 5.237999e-05
6.252000e+00 4.069697e-05 2.881731e-12 -2.124850e-06 4.069697e-05
6.256000e+00 4.118198e-05 2.008533e-12 7.341000e-07 4.118198e-05
6.260000e+00 5.363209e-05 4.419077e-13 4.432679e-06 5.363209e-05
6.264000e+00 6.385622e-05 -1.247267e-12 6.241867e-06 6.385622e-05
6.268000e+00 6.498758e-05 -2.479541e-12 4.880810e-06 6.498759e-05
6.272000e+00 6.431769e-05 -2.909241e-12 1.408290e-06 6.431770e-05
6.276000e+00 6.585529e-05 -2.507391e-12 -2.162970e-06 6.585529e-05
6.280000e+00 6.236110e-05 -1.502640e-12 -4.228382e-06 6.236110e-05
6.284000e+00 5.031065e-05 -2.705959e-13 -4.195266e-06 5.031065e-05
6.288000e+00 3.759064e-05 7.999168e-13 -2.689732e-06 3.759063e-05
6.292000e+00 2.902697e-05 1.424920e-12 -9.403965e-07 2.902697e-05
6.296000e+00 1.798894e-05 1.482041e-12 3.081229e-07 1.798894e-05
6.300000e+00 1.114414e-06 1.018816e-12 1.135821e-06 1.114413e-06
6.304000e+00 -1.159387e-05 2.475866e-13 1.935416e-06 -1.159387e-05
6.308000e+00 -1.216935e-05 -5.096590e-13 2.872465e-06 -1.216935e-05
6.312000e+00 -8.675494e-06 -9.520282e-13 3.765233e-06 -8.675493e-06
6.316000e+00 -1.235086e-05 -9.145899e-13 4.039718e-06 -1.235086e-05
6.320000e+00 -2.123256e-05 -4.035167e-13 2.749406e-06 -2.123256e-05
6.324000e+00 -2.877203e-05 4.354109e-13 -6.557710e-07 -2.877203e-05
6.328000e+00 -3.890697e-05 1.354103e-12 -5.260609e-06 -3.890697e-05
6.332000e+00 -5.780306e-05 2.044185e-12 -8.774000e-06 -5.780306e-05
6.336000e+00 -7.765382e-05 2.234018e-12 -8.917762e-06 -7.765382e-05
6.340000e+00 -8.471263e-05 1.809657e-12 -4.872064e-06 -8.471263e-05
6.344000e+00 -7.987778e-05 8.715846e-13 2.029104e-06 -7.987778e-05
6.348000e+00 -7.607180e-05 -3.178696e-13 8.624173e-06 -7.607180e-05
6.352000e+00 -7.762210e-05 -1.433705e-12 1.148375e-05 -7.762210e-05
6.356000e+00 -7.787190e-05 -2.180299e-12 9.142756e-06 -7.787190e-05
6.360000e+00 -7.573109e-05 -2.377319e-12 3.335717e-06 -7.573109e-05
6.364000e+00 -7.829960e-05 -2.021191e-12 -2.474234e-06 -7.829960e-05
6.368000e+00 -8.570221e-05 -1.277963e-12 -5.932217e-06 -8.570221e-05
6.372000e+00 -8.815549e-05 -4.129602e-13 -6.517083e-06 -8.815549e-05
6.376000e+00 -8.224895e-05 2.864419e-13 -4.612326e-06 -8.224895e-05
6.380000e+00 -7.710656e-05 5.999698e-13 -1.498385e-06 -7.710656e-05
6.384000e+00 -7.859934e-05 4.757720e-13 7.602192e-07 -7.859934e-05
6.388000e+00 -8.000046e-05 7.105534e-14 8.005994e-07 -8.000046e-05
6.392000e+00 -7.579651e-05 -3.171928e-13 -9.915647e-07 -7.579651e-05
6.396000e+00 -7.218280e-05 -4.046264e-13 -3.041902e-06 -7.218280e-05
6.400000e+00 -7.399011e-05 -6.738917e-14 -3.690536e-06 -7.399011e-05
6.404000e+00 -7.320419e-05 5.971479e-13 -2.096066e-06 -7.320419e-05
6.408000e+00 -6.233137e-05 1.324570e-12 1.198564e-06 -6.233138e-05
6.412000e+00 -4.858989e-05 1.800487e-12 4.588724e-06 -4.858990e-05
6.416000e+00 -4.219579e-05 1.777349e-12 6.521656e-06 -4.219579e-05
6.420000e+00 -3.995734e-05 1.175321e-12 6.241506e-06 -3.995734e-05
6.424000e+00 -3.382847e-05 1.456536e-13 3.785845e-06 -3.382847e-05
6.428000e+00 -2.696397e-05 -9.629327e-13 5.697231e-08 -2.696397e-05
6.432000e+00 -2.672705e-05 -1.754967e-12 -3.273536e-06 -2.672705e-05
6.436000e+00 -2.911319e-05 -1.964181e-12 -4.845795e-06 -2.911319e-05
6.440000e+00 -2.499564e-05 -1.546909e-12 -4.539143e-06 -2.499564e-05
6.444000e+00 -1.657209e-05 -6.750484e-13 -3.062307e-06 -1.657209e-05
6.448000e+00 -1.313077e-05 3.336821e-13 -1.131709e-06 -1.313077e-05
6.452000e+00 -1.396488e-05 1.125075e-12 7.068831e-07 -1.396488e-05
6.456000e+00 -1.025437e-05 1.446471e-12 1.909595e-06 -1.025437e-05
6.460000e+00 -2.131383e-06 1.246584e-12 2.209866e-06 -2.131384e-06
6.464000e+00 1.546116e-06 6.586336e-13 2.049276e-06 1.546116e-06
6.468000e+00 6.880604e-07 -1.013181e-13 2.131091e-06 6.880605e-07
6.472000e+00 6.041783e-06 -8.185148e-13 2.637119e-06 6.041784e-06
6.476000e+00 2.115398e-05 -1.317595e-12 3.190511e-06 2.115398e-05
6.480000e+00 3.585527e-05 -1.483839e-12 2.996386e-06 3.585528e-05
6.484000e+00 4.195483e-05 -1.269028e-12 1.103070e-06 4.195483e-05
6.488000e+00 4.317127e-05 -6.891858e-13 -2.475279e-06 4.317127e-05
6.492000e+00 4.408974e-05 1.532643e-13 -6.090977e-06 4.408974e-05
6.496000e+00 4.117657e-05 1.041587e-12 -7.691997e-06 4.117657e-05
6.500000e+00 3.248560e-05 1.680889e-12 -6.464516e-06 3.248560e-05
6.504000e+00 2.602654e-05 1.817017e-12 -3.014537e-06 2.602653e-05
6.508000e+00 2.856154e-05 1.369127e-12 1.220820e-06 2.856154e-05
6.512000e+00 3.389979e-05 4.883296e-13 4.356249e-06 3.389979e-05
6.516000e+00 3.321443e-05 -4.955840e-13 4.958194e-06 3.321443e-05
6.520000e+00 2.990837e-05 -1.210846e-12 3.200544e-06 2.990837e-05
6.524000e+00 3.195465e-05 -1.395373e-12 6.253151e-07 3.195465e-05
6.528000e+00 3.607398e-05 -9.908551e-13 -1.366419e-06 3.607398e-05
6.532000e+00 3.337339e-05 -1.538215e-13 -2.445021e-06 3.337340e-05
6.536000e+00 2.594333e-05 8.060364e-13 -2.835482e-06 2.594333e-05
6.540000e+00 2.349048e-05 1.532057e-12 -2.429817e-06 2.349048e-05
6.544000e+00 2.625854e-05 1.734719e-12 -8.360488e-07 2.625853e-05
6.548000e+00 2.587527e-05 1.285691e-12 1.934296e-06 2.587526e-05
6.552000e+00 2.178310e-05 2.746668e-13 4.993538e-06 2.178310e-05
6.556000e+00 2.171742e-05 -9.861216e-13 6.598915e-06 2.171743e-05
6.560000e+00 2.561206e-05 -2.041528e-12 5.083069e-06 2.561207e-05
6.564000e+00 2.393125e-05 -2.471853e-12 4.686756e-07 2.393125e-05
6.568000e+00 1.462377e-05 -2.097065e-12 -4.726688e-06 1.462377e-05
6.572000e+00 8.218521e-06 -1.064333e-12 -6.789938e-06 8.218522e-06
6.576000e+00 1.108995e-05 2.362741e-13 -3.836538e-06 1.108995e-05
6.580000e+00 1.619336e-05 1.358860e-12 2.279357e-06 1.619335e-05
6.584000e+00 1.700606e-05 1.975160e-12 7.449447e-06 1.700606e-05
6.588000e+00 1.778489e-05 1.947649e-12 8.398700e-06 1.778489e-05
6.592000e+00 2.193357e-05 1.319598e-12 4.664176e-06 2.193357e-05
6.596000e+00 2.287232e-05 2.797335e-13 -1.301048e-06 2.287232e-05
6.600000e+00 1.594655e-05 -8.726912e-13 -6.004025e-06 1.594655e-05
6.604000e+00 8.490295e-06 -1.778681e-12 -7.598388e-06 8.490297e-06
6.608000e+00 7.840305e-06 -2.111392e-12 -6.775216e-06 7.840307e-06
6.612000e+00 8.693548e-06 -1.704797e-12 -5.113823e-06 8.693550e-06
6.616000e+00 3.473261e-06 -6.590773e-13 -3.291714e-06 3.473261e-06
6.620000e+00 -3.071068e-06 6.686944e-13 -1.190118e-06 -3.071068e-06
6.624000e+00 -2.164005e-06 1.815348e-12 1.001378e-06 -2.164007e-06
6.628000e+00 2.955880e-06 2.411356e-12 2.517436e-06 2.955878e-06
6.632000e+00 2.755210e-06 2.310627e-12 2.826461e-06 2.755208e-06
6.636000e+00 -1.956245e-06 1.615706e-12 2.259612e-06 -1.956247e-06
6.640000e+00 -2.990224e-06 6.212606e-13 1.575955e-06 -2.990225e-06
6.644000e+00 -8.798995e-07 -3.073057e-13 1.215110e-06 -8.798992e-07
6.648000e+00 -3.263245e-06 -8.868764e-13 1.287555e-06 -3.263244e-06
6.652000e+00 -8.599618e-06 -1.025294e-12 1.813738e-06 -8.599617e-06
6.656000e+00 -7.090358e-06 -8.288207e-13 2.453342e-06 -7.090357e-06
6.660000e+00 1.110580e-06 -5.222685e-13 2.452106e-06 1.110581e-06
6.664000e+00 4.143779e-06 -3.344795e-13 1.389319e-06 4.143779e-06
6.668000e+00 -2.160002e-06 -3.927145e-13 -2.881135e-07 -2.160001e-06
6.672000e+00 -8.010308e-06 -6.638724e-13 -1.670842e-06 -8.010307e-06
6.676000e+00 -6.914080e-06 -9.806616e-13 -2.102142e-06 -6.914079e-06
6.680000e+00 -4.969934e-06 -1.141036e-12 -1.654438e-06 -4.969932e-06
6.684000e+00 -7.245478e-06 -1.018089e-12 -1.036944e-06 -7.245477e-06
6.688000e+00 -7.990308e-06 -6.204748e-13 -6.642023e-07 -7.990307e-06
6.692000e+00 -2.214575e-06 -8.541295e-14 3.390676e-09 -2.214575e-06
6.696000e+00 3.943981e-06 3.887842e-13 1.442707e-06 3.943980e-06
6.700000e+00 3.564167e-06 6.480337e-13 2.665883e-06 3.564167e-06
6.704000e+00 7.456458e-07 6.666570e-13 2.007812e-06 7.456451e-07
6.708000e+00 1.832785e-06 5.441439e-13 -7.325606e-07 1.832784e-06
6.712000e+00 2.536679e-06 4.213775e-13 -3.913637e-06 2.536679e-06
6.716000e+00 -3.884598e-06 3.923178e-13 -5.595366e-06 -3.884599e-06
6.720000e+00 -1.213004e-05 4.709147e-13 -4.920536e-06 -1.213004e-05
6.724000e+00 -1.271480e-05 6.140346e-13 -2.417813e-06 -1.271480e-05
6.728000e+00 -9.065454e-06 7.612342e-13 6.781777e-07 -9.065455e-06
6.732000e+00 -1.197167e-05 8.522680e-13 3.340986e-06 -1.197167e-05
6.736000e+00 -2.106492e-05 8.377754e-13 4.909187e-06 -2.106492e-05
6.740000e+00 -2.665228e-05 7.048133e-13 4.901314e-06 -2.665228e-05
6.744000e+00 -2.731409e-05 4.836624e-13 3.357848e-06 -2.731409e-05
6.748000e+00 -3.073669e-05 2.130932e-13 1.132247e-06 -3.073669e-05
6.752000e+00 -3.780026e-05 -1.005791e-13 -6.312925e-07 -3.780026e-05
6.756000e+00 -4.075565e-05 -4.707210e-13 -1.325194e-06 -4.075565e-05
6.760000e+00 -3.872284e-05 -8.771643e-13 -1.206058e-06 -3.872284e-05
6.764000e+00 -4.062703e-05 -1.240928e-12 -1.044860e-06 -4.062703e-05
6.768000e+00 -4.883612e-05 -1.461075e-12 -1.361539e-06 -4.883612e-05
6.772000e+00 -5.275390e-05 -1.464213e-12 -1.902062e-06 -5.275390e-05
6.776000e+00 -4.418766e-05 -1.227351e-12 -1.983603e-06 -4.418766e-05
6.780000e+00 -2.773672e-05 -7.891752e-13 -1.343652e-06 -2.773671e-05
6.784000e+00 -9.465428e-06 -2.512250e-13 -4.382828e-07 -9.465428e-06
6.788000e+00 1.315509e-05 2.492601e-13 7.402647e-08 1.315509e-05
6.792000e+00 4.109211e-05 5.869975e-13 1.859010e-08 4.109211e-05
6.796000e+00 6.494524e-05 6.870144e-13 -2.996273e-08 6.494524e-05
6.800000e+00 7.730257e-05 5.488566e-13 6.453884e-07 7.730257e-05
6.804000e+00 8.409109e-05 2.657949e-13 1.918000e-06 8.409109e-05
6.808000e+00 9.291774e-05 9.518846e-15 2.906008e-06 9.291774e-05
6.812000e+00 9.928545e-05 -5.029301e-14 2.933196e-06 9.928545e-05
6.816000e+00 9.567348e-05 1.545650e-13 1.923288e-06 9.567348e-05
6.820000e+00 8.636046e-05 5.510771e-13 2.349824e-07 8.636046e-05
6.824000e+00 8.048696e-05 9.655380e-13 -1.494750e-06 8.048696e-05
6.828000e+00 7.626757e-05 1.209769e-12 -2.572534e-06 7.626757e-05
6.832000e+00 6.595049e-05 1.166612e-12 -2.487058e-06 6.595049e-05
6.836000e+00 5.229477e-05 8.341089e-13 -1.139047e-06 5.229477e-05
6.840000e+00 4.502266e-05 3.192682e-13 8.019723e-07 4.502266e-05
6.844000e+00 4.318271e-05 -2.074546e-13 2.029265e-06 4.318271e-05
6.848000e+00 3.642905e-05 -5.853531e-13 1.597387e-06 3.642905e-05
6.852000e+00 2.315410e-05 -7.346221e-13 -3.040521e-07 2.315410e-05
6.856000e+00 1.233184e-05 -6.809810e-13 -2.567955e-06 1.233184e-05
6.860000e+00 6.222474e-06 -5.209483e-13 -3.954206e-06 6.222475e-06
6.864000e+00 -4.035944e-06 -3.606572e-13 -3.770967e-06 -4.035944e-06
6.868000e+00 -2.231157e-05 -2.700578e-13 -1.970204e-06 -2.231157e-05
6.872000e+00 -4.107063e-05 -2.683636e-13 1.002435e-06 -4.107063e-05
6.876000e+00 -5.582919e-05 -3.291693e-13 4.057179e-06 -5.582919e-05
6.880000e+00 -7.268832e-05 -4.015695e-13 5.634431e-06 -7.268832e-05
6.884000e+00 -9.565867e-05 -4.438334e-13 4.783100e-06 -9.565867e-05
6.888000e+00 -1.190618e-04 -4.421648e-13 2.016930e-06 -1.190618e-04
6.892000e+00 -1.385053e-04 -3.976416e-13 -1.121238e-06 -1.385053e-04
6.896000e+00 -1.538248e-04 -3.085494e-13 -3.064986e-06 -1.538248e-04
6.900000e+00 -1.503472e-04 -1.713881e-13 -2.892055e-06 -1.503472e-04
6.904000e+00 -9.535910e-05 1.464296e-14 -7.224364e-07 -9.535910e-05
6.908000e+00 2.568290e-05 2.466452e-13 2.101352e-06 2.568290e-05
6.912000e+00 1.791529e-04 5.047089e-13 3.673830e-06 1.791529e-04
6.916000e+00 3.071704e-04 7.295287e-13 2.957992e-06 3.071704e-04
6.920000e+00 3.723556e-04 8.356596e-13 3.388060e-07 3.723556e-04
6.924000e+00 3.669146e-04 7.731869e-13 -3.085350e-06 3.669146e-04
6.928000e+00 2.959824e-04 5.698083e-13 -5.967533e-06 2.959824e-04
6.932000e+00 1.755521e-04 3.047992e-13 -7.041366e-06 1.755520e-04
6.936000e+00 3.897652e-05 5.540332e-14 -5.974905e-06 3.897652e-05
6.940000e+00 -7.745381e-05 -1.201518e-13 -3.509288e-06 -7.745381e-05
6.944000e+00 -1.587698e-04 -1.840315e-13 -5.342177e-07 -1.587698e-04
6.948000e+00 -2.107953e-04 -1.405371e-13 2.312212e-06 -2.107953e-04
6.952000e+00 -2.390219e-04 -3.834307e-14 4.383466e-06 -2.390219e-04
6.956000e+00 -2.424741e-04 5.660089e-14 5.357752e-06 -2.424741e-04
6.960000e+00 -2.272978e-04 7.790139e-14 5.529722e-06 -2.272978e-04
6.964000e+00 -2.090356e-04 -2.001054e-14 5.098839e-06 -2.090356e-04
6.968000e+00 -1.956818e-04 -2.152524e-13 3.796245e-06 -1.956818e-04
6.972000e+00 -1.812279e-04 -4.107229e-13 1.645385e-06 -1.812279e-04
6.976000e+00 -1.614915e-04 -4.991433e-13 -5.042845e-07 -1.614915e-04
6.980000e+00 -1.435513e-04 -4.436850e-13 -1.566572e-06 -1.435513e-04
6.984000e+00 -1.322213e-04 -3.090422e-13 -1.212216e-06 -1.322213e-04
6.988000e+00 -1.200665e-04 -2.155159e-13 -2.671140e-07 -1.200665e-04
6.992000e+00 -1.009285e-04 -2.446994e-13 -1.748053e-07 -1.009285e-04
6.996000e+00 -8.169760e-05 -3.761439e-13 -1.689669e-06 -8.169760e-05
7.000000e+00 -6.931406e-05 -5.143418e-13 -3.855647e-06 -6.931406e-05
7.004000e+00 -5.738520e-05 -5.713496e-13 -4.742531e-06 -5.738520e-05
7.008000e+00 -3.858429e-05 -5.132893e-13 -3.372231e-06 -3.858429e-05
7.012000e+00 -2.008785e-05 -3.435581e-13 -5.892305e-07 -2.008785e-05
7.016000e+00 -1.276112e-05 -7.261241e-14 1.748698e-06 -1.276112e-05
7.020000e+00 -1.323863e-05 2.825166e-13 2.138868e-06 -1.323863e-05
7.024000e+00 -1.041380e-05 6.727213e-13 5.504821e-07 -1.041380e-05
7.028000e+00 -2.836625e-06 9.964727e-13 -1.321270e-06 -2.836626e-06
7.032000e+00 4.205727e-06 1.121199e-12 -1.341696e-06 4.205725e-06
7.036000e+00 1.315180e-05 9.609720e-13 1.012395e-06 1.315180e-05
7.040000e+00 3.042056e-05 5.607636e-13 3.937577e-06 3.042056e-05
7.044000e+00 5.093750e-05 1.044574e-13 4.820800e-06 5.093750e-05
7.048000e+00 6.158817e-05 -1.796541e-13 2.598077e-06 6.158817e-05
7.052000e+00 6.032088e-05 -1.551694e-13 -1.337598e-06 6.032088e-05
7.056000e+00 5.791110e-05 1.437294e-13 -4.409322e-06 5.791110e-05
7.060000e+00 5.960143e-05 5.387219e-13 -4.822807e-06 5.960143e-05
7.064000e+00 5.918536e-05 8.067760e-13 -2.713273e-06 5.918536e-05
7.068000e+00 5.417351e-05 7.903438e-13 1.817859e-07 5.417351e-05
7.072000e+00 5.231718e-05 4.582110e-13 2.193909e-06 5.231718e-05
7.076000e+00 5.723442e-05 -1.101436e-13 2.938613e-06 5.723442e-05
7.080000e+00 6.070368e-05 -7.803163e-13 2.660758e-06 6.070369e-05
7.084000e+00 5.688208e-05 -1.399639e-12 1.344141e-06 5.688208e-05
7.088000e+00 5.244198e-05 -1.812672e-12 -6.993541e-07 5.244198e-05
7.092000e+00 5.380177e-05 -1.891841e-12 -2.308567e-06 5.380177e-05
7.096000e+00 5.526927e-05 -1.586826e-12 -2.452725e-06 5.526928e-05
7.100000e+00 5.039987e-05 -9.585077e-13 -1.127921e-06 5.039987e-05
7.104000e+00 4.490292e-05 -1.669280e-13 8.550044e-07 4.490292e-05
7.108000e+00 4.606259e-05 5.874794e-13 2.356398e-06 4.606259e-05
7.112000e+00 4.861791e-05 1.133801e-12 2.511684e-06 4.861791e-05
7.116000e+00 4.426107e-05 1.374588e-12 1.283946e-06 4.426107e-05
7.120000e+00 3.711436e-05 1.305216e-12 -6.882885e-07 3.711436e-05
7.124000e+00 3.611349e-05 1.015783e-12 -2.541422e-06 3.611349e-05
7.128000e+00 3.853956e-05 6.595861e-13 -3.388978e-06 3.853956e-05
7.132000e+00 3.572343e-05 3.834776e-13 -2.498321e-06 3.572343e-05
7.136000e+00 3.052249e-05 2.530888e-13 2.943527e-07 3.052249e-05
7.140000e+00 3.347649e-05 2.261096e-13 4.011151e-06 3.347649e-05
7.144000e+00 4.368779e-05 1.979886e-13 6.526610e-06 4.368779e-05
7.148000e+00 4.902327e-05 8.348923e-14 5.696942e-06 4.902327e-05
7.152000e+00 4.571980e-05 -1.312716e-13 1.172366e-06 4.571980e-05
7.156000e+00 4.323289e-05 -3.990854e-13 -4.574990e-06 4.323289e-05
7.160000e+00 4.706150e-05 -6.561644e-13 -7.801026e-06 4.706150e-05
7.164000e+00 5.117982e-05 -8.470334e-13 -6.633736e-06 5.117982e-05
7.168000e+00 5.209434e-05 -9.146254e-13 -2.362755e-06 5.209434e-05
7.172000e+00 5.570822e-05 -7.956938e-13 2.048082e-06 5.570822e-05
