2.321007000000000121e-05
2.230796999999999845e-05
1.038646999999999917e-05
1.651433000000000084e-05
2.048768999999999967e-05
1.357964999999999966e-05
7.792609999999999579e-06
1.476232000000000065e-05
1.942852000000000012e-05
7.800827999999999845e-06
-3.046127000000000050e-06
-3.106404999999999949e-06
-2.767625000000000035e-06
-3.651019000000000170e-06
8.466457000000000041e-06
5.789209000000000022e-06
-1.783744999999999936e-06
-6.155343000000000301e-06
-8.465266000000000411e-06
-1.635690999999999990e-05
-1.635107000000000132e-05
-1.616186999999999981e-05
-1.595820999999999980e-05
-1.104101000000000053e-05
-1.700737000000000044e-05
-1.588446000000000072e-05
-1.455544000000000069e-05
-8.257960000000000129e-06
-9.653756000000000275e-06
-1.420534000000000044e-05
-2.654168999999999965e-05
-2.796660000000000088e-05
-2.817245000000000163e-05
-1.978821999999999940e-05
-1.326630000000000036e-05
-2.107606000000000027e-05
-2.502495999999999901e-05
-2.327016000000000016e-05
-2.644372000000000031e-05
-2.268467999999999844e-05
-1.774899000000000165e-05
-2.651725000000000094e-05
-2.232597000000000065e-05
-2.712410000000000005e-05
-2.208865000000000069e-05
-2.609631000000000019e-05
-2.446088000000000017e-05
-3.164596999999999950e-05
-3.119914000000000026e-05
-3.703775000000000296e-05
-4.822067000000000193e-05
-6.767815999999999578e-05
-7.198295000000000171e-05
-8.098105999999999339e-05
-8.506154000000000145e-05
-9.004499999999999592e-05
-1.033856999999999951e-04
-1.102439000000000034e-04
-1.120018000000000023e-04
-1.261535000000000043e-04
-1.215708000000000050e-04
-1.138688000000000032e-04
-8.972627000000000651e-05
-6.658749999999999901e-05
-5.187039000000000330e-05
-2.118277000000000116e-05
-1.319544999999999917e-05
4.030554000000000001e-06
2.747028999999999953e-05
3.735163999999999938e-05
4.093439999999999893e-05
5.497311999999999858e-05
5.735672000000000063e-05
5.618753999999999974e-05
4.985591999999999953e-05
5.099995999999999680e-05
4.200056999999999689e-05
4.318406000000000273e-05
3.935979000000000149e-05
4.695163000000000163e-05
3.889482000000000041e-05
3.748275000000000294e-05
2.797388999999999925e-05
1.990227999999999946e-05
1.782789999999999917e-05
-6.157395000000000193e-06
-5.303560999999999822e-05
-7.679915000000000483e-05
-8.965687000000000342e-05
-1.225312000000000102e-04
-1.763998999999999982e-04
-2.294296000000000031e-04
-2.022712000000000023e-04
1.744431999999999970e-05
2.744560999999999962e-04
4.076910999999999903e-04
4.308461000000000083e-04
4.366211000000000267e-04
3.807457999999999893e-04
3.044910999999999755e-04
2.203596000000000103e-04
1.178800000000000030e-04
2.264263999999999841e-05
-8.654000999999999884e-06
-1.669504999999999866e-05
-6.129698000000000481e-05
-1.070144999999999967e-04
-1.232651999999999934e-04
-9.319620999999999450e-05
-8.683352999999999666e-05
-1.204586999999999992e-04
-1.276413000000000005e-04
-1.084604999999999960e-04
-9.963785000000000014e-05
-1.157896999999999936e-04
-1.140602999999999962e-04
-1.065080999999999976e-04
-9.377774000000000450e-05
-9.629749999999999747e-05
-1.000835999999999984e-04
-1.024811000000000038e-04
-9.110565999999999467e-05
-9.300975000000000171e-05
-9.300674999999999513e-05
-8.880315999999999427e-05
-7.376719000000000006e-05
-7.714253999999999816e-05
-8.849636999999999987e-05
-7.225513000000000085e-05
-7.126716000000000496e-05
-8.104632000000000502e-05
-7.847592999999999388e-05
-7.515168000000000618e-05
-7.533360999999999378e-05
-6.519880999999999724e-05
-6.613942000000000042e-05
-6.664818000000000196e-05
-7.562345999999999576e-05
-7.570228999999999446e-05
-6.571400000000000136e-05
-6.771216000000000257e-05
-7.124432000000000638e-05
-7.211484999999999955e-05
-6.897480999999999632e-05
-7.030439999999999726e-05
-7.538109999999999559e-05
-7.022482000000000030e-05
-6.936015999999999764e-05
-6.444890999999999955e-05
-5.624671999999999940e-05
-4.868294999999999779e-05
-4.594215999999999925e-05
-4.083616999999999835e-05
-4.273196000000000074e-05
-4.058003999999999713e-05
-2.674024999999999864e-05
-1.438435999999999961e-05
-1.070876000000000045e-05
-3.884063999999999647e-06
4.335637999999999929e-07
1.271175999999999974e-05
2.596101000000000168e-05
2.339192000000000016e-05
4.409788000000000206e-05
6.520153999999999848e-05
8.468976000000000076e-05
8.558883999999999893e-05
8.443328000000000215e-05
9.133575000000000385e-05
9.436277000000000185e-05
9.887638999999999337e-05
1.086352999999999999e-04
1.154797999999999984e-04
1.228063999999999903e-04
1.259292999999999871e-04
1.273001000000000113e-04
1.235231999999999899e-04
1.184236999999999958e-04
1.196650999999999938e-04
1.140218999999999933e-04
1.083151000000000025e-04
1.080088000000000017e-04
1.123188999999999996e-04
1.113890999999999937e-04
9.193594000000000462e-05
8.182318000000000490e-05
8.787490000000000123e-05
7.678676000000000544e-05
7.839188999999999663e-05
7.499000999999999931e-05
6.716881999999999432e-05
5.940876999999999736e-05
5.626749000000000225e-05
5.075765000000000013e-05
4.577054000000000105e-05
3.207630000000000323e-05
3.710030000000000120e-05
3.729080999999999949e-05
3.604897999999999854e-05
4.258458999999999812e-05
4.490329000000000016e-05
3.178058999999999789e-05
2.968475000000000069e-05
1.863109000000000122e-05
2.112669000000000152e-05
2.599433999999999886e-05
2.726632999999999886e-05
2.601722000000000024e-05
1.700665000000000089e-05
2.268860999999999892e-05
2.351307999999999884e-05
2.280871999999999869e-05
1.579762000000000072e-05
2.068828999999999907e-05
1.241079999999999983e-05
1.042916999999999962e-05
1.670641000000000053e-05
1.415822999999999980e-05
9.869521000000000064e-06
1.413615000000000017e-05
1.333689000000000031e-05
5.186131000000000000e-06
-3.645501000000000107e-08
7.051372000000000019e-06
6.394210999999999790e-06
3.650612000000000158e-06
9.898485999999999370e-07
-4.359156000000000180e-06
-2.338054999999999928e-06
-4.228993999999999917e-06
-4.495383999999999750e-06
-6.250392000000000109e-06
-4.442436000000000168e-06
-2.905322000000000133e-06
-7.310152999999999880e-07
-4.728505000000000055e-06
-2.856645999999999890e-06
-8.761071000000000537e-06
-1.823585000000000007e-06
-1.406111000000000063e-05
-1.680420000000000083e-05
-2.137413999999999861e-05
-1.131683000000000020e-05
-9.881622999999999969e-06
-5.969338000000000377e-06
-1.057436999999999952e-05
-1.612203000000000122e-05
-2.254635000000000141e-05
-1.873489999999999913e-05
-2.218499999999999850e-05
-2.373867000000000154e-05
-2.385660000000000127e-05
-2.115100000000000129e-05
-2.860059000000000123e-05
-2.581556999999999854e-05
-3.243586000000000288e-05
-2.845340999999999834e-05
-2.567409000000000138e-05
-3.317909000000000152e-05
-2.579329999999999918e-05
-2.551326999999999976e-05
-2.676403999999999930e-05
-2.316774999999999854e-05
-2.353456000000000054e-05
-3.133760000000000300e-05
-3.050909999999999899e-05
-3.017655999999999895e-05
-2.455881000000000009e-05
-1.577669000000000022e-05
-1.563310000000000115e-05
-2.281011000000000106e-05
-1.552577000000000094e-05
-2.248785999999999919e-05
-3.004279999999999974e-05
-2.567023999999999971e-05
-2.014843000000000048e-05
-2.152586000000000061e-05
-2.308284000000000141e-05
-2.170197000000000120e-05
-1.785887000000000067e-05
-2.292433999999999946e-05
-3.152549000000000096e-05
-2.465180000000000003e-05
-3.212870000000000293e-05
-3.626914999999999816e-05
-4.402166999999999691e-05
-5.586743000000000188e-05
-6.695283999999999643e-05
-7.056792000000000045e-05
-8.584899999999999747e-05
-8.559767999999999392e-05
-1.011362999999999959e-04
-1.171702999999999986e-04
-1.179248000000000064e-04
-1.167147000000000025e-04
-1.193041999999999952e-04
-1.047094999999999976e-04
-7.851658000000000508e-05
-6.189126999999999942e-05
-3.945007000000000158e-05
-2.644150000000000086e-05
-4.823595000000000359e-06
1.757219000000000023e-05
3.753020000000000195e-05
5.301613999999999822e-05
6.240456000000000616e-05
6.912106999999999583e-05
7.581367999999999408e-05
8.017587000000000390e-05
7.743183000000000162e-05
7.243143000000000118e-05
6.977478000000000011e-05
4.855102999999999855e-05
5.082277000000000197e-05
4.625699000000000043e-05
5.005444000000000251e-05
4.266600000000000112e-05
5.087651000000000055e-05
4.104877999999999766e-05
2.233664000000000168e-05
-2.041192999999999889e-05
-6.340607000000000057e-05
-6.993478999999999928e-05
-6.989948999999999642e-05
-1.171702999999999986e-04
-1.935847000000000034e-04
-2.546442999999999905e-04
-1.983607999999999932e-04
6.184236999999999384e-05
3.071268999999999952e-04
4.081549000000000180e-04
4.200844999999999926e-04
4.104453999999999785e-04
3.440337999999999925e-04
2.692282999999999851e-04
1.799732999999999867e-04
7.069653999999999923e-05
-2.088753999999999890e-05
-3.674169000000000024e-05
-4.469904999999999685e-05
-8.829526999999999938e-05
-1.315339000000000113e-04
-1.200283000000000041e-04
-1.045081000000000032e-04
-1.056358999999999960e-04
-1.317493000000000093e-04
-1.231972000000000069e-04
-1.092878999999999943e-04
-1.148402000000000054e-04
-1.248033999999999916e-04
-1.194469999999999966e-04
-1.202410999999999964e-04
-1.078641000000000029e-04
-1.114462000000000037e-04
-1.098094999999999996e-04
-9.831334000000000221e-05
-9.482974999999999445e-05
-9.599028000000000009e-05
-9.607572000000000041e-05
-8.101618999999999791e-05
-8.273563000000000325e-05
-7.634835000000000569e-05
-7.583217000000000007e-05
-6.769222000000000357e-05
-7.327306000000000552e-05
-7.584143999999999803e-05
-8.701289999999999491e-05
-7.315819999999999355e-05
-5.702121000000000289e-05
-5.557755999999999851e-05
-5.945641999999999681e-05
-6.554901000000000618e-05
-7.235188000000000632e-05
-6.221684000000000654e-05
-5.299948999999999898e-05
-5.238939000000000291e-05
-5.444029000000000050e-05
-5.630195000000000056e-05
-5.620270000000000317e-05
-5.751357000000000236e-05
-6.677315000000000290e-05
-6.770173000000000477e-05
-5.569920999999999759e-05
-5.206841999999999910e-05
-4.318961999999999866e-05
-4.028167000000000222e-05
-4.174196999999999906e-05
-3.744397000000000057e-05
-2.986911999999999974e-05
-2.099902999999999874e-05
-3.263268000000000128e-06
-5.934318000000000160e-06
1.230816000000000076e-05
2.174818999999999887e-05
2.882715000000000063e-05
4.179349999999999889e-05
5.072156000000000299e-05
5.331060999999999813e-05
6.233449999999999755e-05
7.390056000000000587e-05
8.759276999999999721e-05
9.587704000000000658e-05
9.312346000000000100e-05
1.180462000000000015e-04
1.201618999999999989e-04
1.194851999999999991e-04
1.267969999999999991e-04
1.362303000000000092e-04
1.319035000000000086e-04
1.329498999999999991e-04
1.294795000000000060e-04
1.347370999999999877e-04
1.281959999999999903e-04
1.219534999999999971e-04
1.226154999999999986e-04
1.295935999999999920e-04
1.264390000000000002e-04
1.153567000000000063e-04
1.070917999999999968e-04
1.091106999999999987e-04
1.025898999999999984e-04
1.022469999999999987e-04
9.429464000000000628e-05
8.813841000000000373e-05
8.592533999999999816e-05
7.130504999999999927e-05
6.624069999999999752e-05
6.275281000000000066e-05
6.137865999999999960e-05
5.237092999999999902e-05
5.784383999999999945e-05
6.078785999999999841e-05
5.465150999999999744e-05
4.602919000000000238e-05
4.626916999999999868e-05
3.520628000000000066e-05
3.353403000000000324e-05
2.335251000000000115e-05
2.270929999999999957e-05
1.348016999999999972e-05
3.006156999999999990e-06
1.615403000000000024e-05
2.524260000000000121e-05
2.636015999999999937e-05
2.122977999999999988e-05
1.174171999999999945e-05
1.660940000000000059e-05
7.263394000000000037e-06
9.444980000000000498e-06
1.545573000000000050e-05
1.467127999999999991e-05
2.063020999999999844e-05
2.264912999999999841e-05
2.204549000000000024e-05
1.507488999999999959e-05
1.103961999999999985e-05
7.205523000000000299e-06
2.135544999999999897e-06
2.354337000000000126e-07
1.014512999999999921e-05
7.476690000000000069e-06
4.206424000000000106e-07
1.872567000000000015e-06
1.212603999999999986e-05
5.765280999999999782e-07
-5.429575999999999835e-06
-2.595409999999999940e-05
-1.561712000000000134e-05
5.688622999999999626e-06
1.424387999999999956e-05
1.457570000000000005e-05
1.002320999999999987e-05
-1.941076000000000116e-06
-2.052521000000000092e-07
-1.734630000000000068e-06
-1.752290999999999856e-05
-2.542868999999999861e-05
-2.122370000000000146e-05
-1.154648999999999963e-05
-1.681218999999999988e-06
-1.171699000000000079e-05
-3.158255000000000139e-05
-3.530648999999999745e-05
-3.008017999999999903e-05
-3.414020000000000222e-05
-3.834446000000000252e-05
-2.934577000000000076e-05
-2.673819000000000022e-05
-2.384133000000000031e-05
-3.506316999999999789e-05
-3.791758000000000297e-05
-3.488943000000000046e-05
-3.439786000000000205e-05
-3.583722999999999840e-05
-3.494772999999999955e-05
-2.665606000000000106e-05
-1.670884000000000112e-05
-1.306477000000000028e-05
-1.989935999999999848e-05
-3.203499000000000006e-05
-4.183718999999999914e-05
-5.210118000000000046e-05
-6.316315000000000189e-05
-6.767537000000000390e-05
-4.939398000000000036e-05
-2.285162000000000128e-05
-1.266898999999999947e-05
-7.456291999999999862e-06
-2.511682999999999852e-05
-2.761304000000000083e-05
-2.654407000000000012e-05
-2.120544000000000140e-05
-4.344295000000000052e-05
-5.404764999999999743e-05
-5.022607000000000140e-05
-4.388200999999999831e-05
-5.000952999999999822e-05
-3.477827000000000338e-05
-1.692494000000000062e-05
-1.468982999999999993e-05
-1.133781000000000080e-05
-1.936665999999999933e-05
-2.751463999999999852e-05
-3.127182000000000242e-05
-2.530562999999999915e-05
-2.594099000000000047e-05
-4.128995000000000267e-05
-6.221689999999999718e-05
-6.203487000000000259e-05
-6.911155999999999463e-05
-8.175443999999999376e-05
-8.689424000000000171e-05
-9.577165999999999371e-05
-1.170710999999999979e-04
-1.274747000000000011e-04
-1.289119999999999882e-04
-1.354167999999999941e-04
-1.435216000000000118e-04
-1.131855999999999959e-04
-7.667321000000000379e-05
-6.877939000000000015e-05
-4.144310000000000306e-05
-2.092537999999999988e-05
-2.141108000000000101e-05
4.818350999999999601e-06
5.038939000000000173e-05
6.101397000000000022e-05
4.060823999999999798e-05
5.104825000000000036e-05
6.989149000000000598e-05
6.169292000000000157e-05
5.297907000000000029e-05
5.491435000000000050e-05
3.985031000000000098e-05
2.707263999999999835e-05
4.166357000000000334e-05
5.859605999999999680e-05
6.903228000000000510e-05
5.563047000000000001e-05
2.233798000000000055e-05
9.027510000000000241e-06
2.831086000000000087e-05
-1.298442000000000027e-05
-8.239834000000000297e-05
-8.277079999999999702e-05
-4.233759999999999932e-05
-5.513487999999999820e-05
-1.111738000000000027e-04
-1.996552999999999924e-04
-1.822861999999999963e-04
3.568900999999999730e-05
2.892128999999999902e-04
4.113214000000000019e-04
4.009082000000000184e-04
3.852907000000000142e-04
3.471734000000000191e-04
3.171715999999999772e-04
2.275884000000000045e-04
1.031940999999999951e-04
-2.049355999999999865e-06
-1.762476999999999897e-05
-3.090423999999999737e-05
-7.678664999999999775e-05
-1.203644000000000025e-04
-1.037303999999999988e-04
-9.715332000000000514e-05
-1.088089000000000010e-04
-1.437844999999999987e-04
-1.325077999999999987e-04
-9.300874999999999952e-05
-7.092478000000000096e-05
-9.211986999999999661e-05
-9.434676000000000672e-05
-8.192765999999999547e-05
-7.936235000000000088e-05
-6.284352000000000373e-05
-6.213436999999999715e-05
-6.161840000000000622e-05
-6.746714000000000606e-05
-7.718793000000000214e-05
-7.637749999999999845e-05
-6.389101000000000274e-05
-7.290546999999999978e-05
-8.001242999999999517e-05
-8.024204999999999858e-05
-6.686269000000000544e-05
-6.745333000000000221e-05
-4.253516000000000290e-05
-4.023765999999999991e-05
-4.039190000000000201e-05
-4.063194000000000251e-05
-3.898970999999999774e-05
-3.426694999999999893e-05
-4.124315000000000170e-05
-4.747491000000000249e-05
-5.670357000000000164e-05
-4.600710000000000205e-05
-3.024794000000000164e-05
-2.313439999999999995e-05
-1.808532999999999986e-05
-1.106627000000000069e-05
-1.994885999999999860e-05
-2.210407999999999929e-05
-1.568106999999999926e-05
-2.883897000000000080e-05
-4.121061000000000217e-05
-1.002542999999999932e-05
-6.098483999999999699e-06
-5.513331000000000018e-06
-1.668143000000000132e-05
-1.730428999999999895e-05
-1.420883000000000063e-05
-7.395369999999999974e-06
1.245060999999999970e-05
2.374651999999999842e-05
2.436240999999999974e-05
3.272594000000000062e-05
5.198130999999999715e-05
7.357546000000000452e-05
7.968879000000000110e-05
8.073926000000000529e-05
8.457960000000000586e-05
9.230944000000000367e-05
1.072256999999999990e-04
1.175385000000000064e-04
1.156292999999999942e-04
9.830923999999999999e-05
8.348987000000000639e-05
1.135170999999999977e-04
1.222917000000000069e-04
1.070419000000000025e-04
1.159309000000000050e-04
1.088188000000000024e-04
9.905438000000000350e-05
1.020132000000000010e-04
1.370986000000000090e-04
1.446723999999999872e-04
1.463071999999999940e-04
1.196114999999999982e-04
1.277603000000000039e-04
1.125464999999999972e-04
9.898269000000000284e-05
1.139858999999999957e-04
1.190875999999999946e-04
7.290918000000000182e-05
7.862694000000000042e-05
1.047020000000000014e-04
8.746004999999999622e-05
6.089820999999999982e-05
6.118075000000000542e-05
6.547514000000000209e-05
5.204648000000000249e-05
3.440911000000000300e-05
2.996972000000000009e-05
3.317237999999999968e-05
2.854944000000000088e-05
1.136844000000000054e-05
1.312497000000000056e-06
1.943018000000000105e-05
8.058673000000000762e-06
2.638996000000000034e-05
3.130226999999999803e-05
2.717561999999999918e-05
1.778958999999999920e-05
1.029023000000000058e-05
2.251557000000000049e-06
7.034022000000000516e-07
-5.055236000000000256e-07
1.461782000000000059e-05
2.904212999999999802e-06
-1.936277000000000164e-05
-2.561153999999999975e-05
-2.773069000000000131e-05
-7.054412000000000078e-06
2.252691000000000011e-05
1.446201999999999948e-05
4.118720999999999999e-06
-1.153902999999999953e-05
-2.637704000000000115e-05
-5.809686999999999896e-06
-1.776256999999999958e-05
-4.793728999999999686e-06
9.280280000000000194e-06
-3.375951000000000163e-05
-3.676128000000000186e-05
9.059555000000000711e-06
-1.992933999999999849e-05
-2.067080999999999937e-05
-1.077749000000000072e-05
2.367178999999999854e-05
3.022909000000000097e-05
2.126521000000000167e-05
-1.269393999999999912e-07
-2.548599999999999959e-05
-4.015699000000000124e-05
-3.430666999999999929e-05
-2.935919000000000105e-05
-4.582404999999999709e-05
-4.679160000000000106e-05
-4.620136999999999909e-05
-7.180329999999999742e-05
-5.281309999999999754e-05
-5.982727000000000021e-05
-4.703693999999999963e-05
-3.992109999999999967e-05
-1.175753000000000007e-06
4.408790999999999578e-06
-4.196735999999999793e-05
-5.742630999999999669e-05
-6.310128999999999771e-05
-5.886840000000000036e-05
4.091406000000000075e-06
5.252369999999999993e-05
3.140004000000000032e-05
-1.836308999999999972e-05
-4.503370000000000219e-05
-3.509857000000000097e-05
-3.529485999999999702e-05
-5.645530000000000139e-05
-5.441305999999999975e-05
-4.206455000000000030e-05
-2.499125999999999965e-05
-4.821655999999999902e-05
-6.816735999999999781e-05
-5.364862000000000135e-05
-4.661486999999999776e-05
-6.981173999999999713e-05
-8.917341999999999706e-05
-7.009864999999999673e-05
-5.691990999999999761e-05
-4.209842999999999870e-05
-6.128793999999999583e-05
-5.253896999999999750e-05
-1.790484999999999850e-05
-2.225600999999999903e-05
-8.367886999999999390e-06
-1.739139000000000020e-05
-4.647616999999999856e-05
8.596247000000000199e-07
3.704984000000000169e-05
-5.304382999999999516e-07
-3.835698999999999814e-05
-4.129754999999999901e-05
-4.053762999999999833e-05
-3.214085999999999977e-05
-3.555743000000000152e-05
-6.895229000000000657e-05
-9.167158999999999757e-05
-9.715928000000000194e-05
-1.122934999999999981e-04
-1.183395999999999943e-04
-1.508555000000000128e-04
-1.415720999999999993e-04
-1.604226000000000046e-04
-1.861069999999999988e-04
-1.058925000000000030e-04
6.562466999999999996e-06
1.383539999999999971e-05
2.397265999999999894e-05
9.960414000000000347e-06
-2.258316000000000148e-05
9.611401999999999630e-06
5.022637000000000206e-05
7.769130000000000610e-05
1.039184000000000044e-04
8.469062999999999385e-05
6.266336000000000443e-05
5.057983000000000189e-05
5.536249000000000329e-05
5.086732000000000140e-05
6.030389000000000311e-05
6.046903000000000201e-05
3.314279000000000324e-05
1.993373000000000151e-06
4.203358999999999781e-06
2.441954999999999899e-05
5.233563999999999686e-05
7.692680000000000351e-05
2.426208999999999864e-05
-5.518395000000000212e-05
-8.642549999999999441e-05
-7.399135000000000098e-05
-8.693812999999999563e-05
-1.310929000000000066e-04
-1.959770999999999909e-04
-1.950607999999999943e-04
-9.660581999999999386e-06
2.555061999999999763e-04
3.902013999999999873e-04
3.929188000000000233e-04
3.702153000000000128e-04
3.448600000000000016e-04
3.140121999999999748e-04
2.177070000000000079e-04
1.385597999999999875e-04
5.163879999999999762e-05
-4.534639999999999667e-05
-1.052013999999999987e-04
-1.064648999999999977e-04
-6.020865000000000163e-05
-7.118149000000000210e-05
-4.720866999999999875e-05
-7.313935000000000304e-05
-1.272953000000000008e-04
-1.313425000000000118e-04
-1.134629999999999943e-04
-8.809627999999999741e-05
-1.139072000000000061e-04
-1.377627999999999882e-04
-1.346363999999999905e-04
-7.512488000000000163e-05
-1.137450999999999962e-04
-1.256734000000000019e-04
-9.399138000000000132e-05
-8.036256999999999992e-05
-7.809247000000000280e-05
-9.560123999999999814e-05
-1.147890999999999950e-04
-7.521655000000000409e-05
-4.815295000000000117e-05
-7.353572000000000277e-05
-7.487311999999999440e-05
-7.359859999999999699e-05
-6.718190000000000132e-05
-5.889033999999999697e-05
-2.273814999999999845e-05
-6.823936000000000660e-05
-9.902499999999999465e-05
-1.029282999999999950e-04
-5.039871000000000319e-05
-3.889933999999999813e-05
-6.463053999999999327e-05
-4.971583999999999867e-05
-6.067739000000000216e-05
-6.893598000000000401e-05
-6.417931000000000471e-05
-5.996344999999999930e-05
-7.973497999999999328e-05
-9.312081000000000535e-05
-7.682397999999999354e-05
-7.314072000000000401e-05
-3.852325000000000085e-05
-5.180338999999999869e-05
-5.423808999999999759e-05
-6.270163999999999892e-05
-6.232755999999999995e-05
-5.432005999999999911e-05
-9.037300000000000701e-06
-5.691170000000000265e-06
-3.274419000000000336e-05
-2.430629000000000069e-05
-9.366492000000000649e-06
6.642729000000000110e-06
5.343519000000000059e-06
4.798191000000000289e-05
4.430595000000000225e-05
4.673146000000000201e-05
7.210592999999999896e-05
8.153750999999999718e-05
8.450379000000000159e-05
9.537562000000000351e-05
8.892090000000000443e-05
1.136098000000000045e-04
1.138574999999999987e-04
1.148880999999999953e-04
1.006637999999999966e-04
1.484718000000000105e-04
1.554516999999999943e-04
1.222832000000000086e-04
1.371851999999999956e-04
1.277340999999999871e-04
9.778875000000000458e-05
1.106848999999999946e-04
1.637599000000000108e-04
1.415498000000000114e-04
1.202546000000000057e-04
1.248255999999999997e-04
1.562062000000000021e-04
1.184596999999999934e-04
9.840472999999999863e-05
7.186446999999999399e-05
1.817138999999999950e-05
4.352677999999999663e-05
4.306475999999999864e-05
5.855448000000000185e-05
9.441430000000000167e-05
5.747630999999999791e-05
6.616071999999999969e-05
7.336722000000000599e-05
8.633540999999999405e-05
8.221900999999999396e-05
7.340927999999999386e-05
6.411199999999999874e-05
4.884245000000000193e-05
4.880703999999999815e-05
4.955909999999999786e-05
1.821104999999999905e-05
-6.769579999999999821e-06
-7.514976999999999623e-06
-1.451957999999999931e-06
5.421634000000000411e-06
2.790681999999999991e-05
2.366216999999999981e-05
2.299282999999999988e-05
3.351464000000000206e-05
2.031148999999999956e-05
1.888978999999999927e-05
-6.027896000000000232e-06
-1.819680000000000169e-05
4.450604000000000113e-07
1.464199999999999974e-05
3.799937000000000207e-06
3.193022999999999668e-05
3.245547999999999982e-05
1.603229999999999937e-06
-1.821034000000000021e-05
1.167148000000000027e-05
3.892773999999999941e-05
1.554418000000000133e-05
4.735198000000000196e-05
2.449078000000000135e-05
-1.702314999999999981e-05
1.168523999999999936e-06
-4.131529000000000335e-06
-2.975791999999999985e-05
1.676697999999999917e-05
-1.768152000000000143e-05
-8.900961999999999365e-06
-2.684802000000000167e-06
1.290313999999999976e-08
-1.872700000000000086e-06
4.535356999999999681e-06
2.415229999999999913e-05
1.252395000000000060e-05
9.286775000000000544e-06
5.036481000000000297e-07
-6.270703000000000455e-07
3.086506000000000091e-05
4.145099000000000105e-06
-1.123886999999999968e-05
5.700223999999999890e-06
-1.317329000000000072e-05
-4.325412999999999849e-05
-2.632750999999999893e-05
-2.004428000000000166e-06
4.765392000000000266e-05
-2.043498999999999931e-05
-7.377993999999999753e-05
-8.228077000000000470e-05
-8.890226000000000150e-05
-4.591171999999999755e-05
-1.097841000000000048e-05
-3.766882000000000233e-05
-3.703781000000000038e-05
-2.719399000000000016e-05
7.053225000000000347e-07
1.120321999999999944e-05
-4.419164000000000165e-05
-6.215493999999999956e-05
-2.349592999999999850e-05
8.339969999999999366e-06
-6.096650999999999923e-07
-5.302357000000000299e-05
-3.187724000000000314e-05
-3.523163999999999934e-05
-6.173178999999999667e-05
-6.697979999999999863e-05
-3.467860999999999763e-05
-2.112900000000000048e-05
-1.210949999999999985e-05
-4.296169999999999899e-05
-4.422260999999999976e-05
-1.857186000000000145e-05
-3.290005000000000190e-06
1.877962000000000029e-05
1.114132999999999993e-05
-4.048372000000000141e-05
-8.444643000000000049e-05
-9.713979999999999447e-05
-8.287233999999999877e-05
-1.018364000000000064e-04
-8.921883000000000244e-05
-1.018030000000000009e-04
-1.482397999999999897e-04
-1.493437999999999981e-04
-1.378836000000000092e-04
-1.263596000000000023e-04
-1.239068999999999978e-04
-1.226455999999999900e-04
-6.880881999999999895e-05
-8.475467000000000146e-06
4.697335000000000318e-05
5.551263000000000318e-05
1.346009999999999967e-06
-3.154820999999999792e-06
8.253379000000000520e-05
9.651209000000000654e-05
8.523708000000000283e-05
4.117910000000000017e-05
4.227908999999999910e-05
5.106670999999999747e-05
8.310055999999999910e-05
8.537475999999999843e-05
4.772199000000000081e-05
2.362877000000000111e-05
5.163458000000000056e-05
5.118563000000000209e-05
7.320272000000000443e-05
1.929034000000000003e-05
-1.817211999999999975e-05
1.166783000000000074e-05
-4.846134999999999977e-05
-8.849395000000000676e-05
-8.495409000000000641e-05
-8.431803000000000355e-05
-1.235335000000000057e-04
-1.795807000000000067e-04
-2.105998000000000093e-04
-4.617489000000000337e-05
2.235721999999999937e-04
4.101061000000000138e-04
4.857821000000000122e-04
4.523617999999999758e-04
3.558513999999999926e-04
3.055703000000000108e-04
2.004743999999999927e-04
1.135552000000000067e-04
4.365442999999999977e-08
-5.286787000000000040e-05
-2.507018999999999857e-05
-6.771515999999999560e-05
-1.399143000000000099e-04
-1.351238999999999956e-04
-1.132196999999999961e-04
-1.141061000000000018e-04
-1.142012999999999937e-04
-1.121737999999999999e-04
-9.354031999999999755e-05
-8.622652000000000669e-05
-9.156260000000000321e-05
-1.207292999999999962e-04
-1.512258000000000048e-04
-7.140456999999999523e-05
-8.237707000000000579e-05
-8.072689999999999445e-05
-1.074511999999999988e-04
-1.297202999999999920e-04
-8.087606999999999424e-05
-7.913697999999999664e-05
-7.280158999999999697e-05
-7.756881000000000247e-05
-8.464672999999999924e-05
-8.248228000000000677e-05
-1.213249999999999946e-04
-1.181871000000000055e-04
-7.747014999999999891e-05
-6.814668000000000125e-05
-2.811501999999999903e-05
-1.450449000000000078e-05
4.673815000000000245e-06
-5.854092000000000193e-05
-9.991035999999999526e-05
-4.976637000000000308e-05
-6.648484000000000024e-05
-6.570927999999999643e-05
-3.950568000000000222e-05
-2.981794000000000068e-05
-6.155188000000000131e-05
-7.998748999999999876e-05
-8.930272000000000275e-05
-6.864898999999999882e-05
-5.205443999999999691e-05
-3.058699000000000308e-05
-2.439227000000000151e-05
-2.862331000000000158e-05
-7.646510000000000080e-05
-6.463867999999999350e-05
-3.749096000000000129e-05
-3.752791999999999830e-05
-2.001438999999999863e-05
-1.888252999999999961e-05
6.542050000000000324e-06
7.177974999999999661e-06
-1.717306000000000054e-05
3.244220999999999986e-05
8.617449999999999969e-05
9.744718000000000303e-05
1.029943999999999977e-04
6.333966000000000336e-05
3.049852000000000086e-05
3.781617999999999747e-05
9.590951000000000120e-05
1.120657999999999935e-04
1.049597000000000041e-04
1.215876000000000012e-04
1.369343999999999878e-04
1.321051999999999968e-04
1.322202999999999985e-04
1.311890999999999871e-04
1.183591999999999967e-04
1.209276999999999976e-04
1.489887000000000123e-04
1.673021999999999921e-04
1.378411999999999975e-04
1.416683999999999869e-04
1.165694999999999958e-04
1.066339999999999958e-04
1.418558000000000048e-04
1.438725000000000019e-04
1.015351000000000030e-04
8.120977000000000089e-05
7.874720999999999783e-05
7.169276000000000305e-05
9.171267999999999890e-05
6.609985999999999770e-05
1.332338999999999950e-05
3.131958000000000279e-05
3.977726000000000005e-05
6.659050000000000559e-05
9.921359000000000092e-05
5.636697000000000219e-05
4.627011999999999738e-05
2.633902000000000113e-05
4.462164000000000261e-05
3.919621000000000330e-05
3.406523000000000249e-05
-9.427744999999999298e-06
-1.232839999999999914e-06
2.093570000000000015e-05
1.806870999999999933e-05
1.693996000000000103e-05
1.796383999999999842e-05
-1.018731000000000055e-05
-4.606891000000000274e-05
-4.290848999999999683e-05
6.869398000000000192e-06
1.727387999999999935e-05
2.645860999999999840e-05
6.193182000000000363e-05
2.265615000000000161e-05
1.560743999999999841e-05
-2.446103000000000050e-05
-1.218644999999999917e-05
2.042144000000000009e-05
7.089585999999999887e-06
1.096185999999999977e-05
1.017910999999999951e-05
-1.142770999999999972e-05
1.267481000000000046e-06
2.363481000000000013e-05
2.643363999999999989e-05
-1.973613000000000106e-05
-2.070713999999999975e-05
-3.484363000000000168e-05
-4.304839999999999936e-05
-1.991695999999999980e-05
-1.066122999999999923e-05
-1.968016999999999965e-05
1.283380999999999970e-05
2.878993999999999968e-05
2.302384000000000164e-06
-2.726151000000000049e-05
-1.135950000000000025e-05
-4.119199000000000065e-05
-5.194958000000000008e-05
1.103408999999999925e-05
-6.768369999999999878e-06
-1.806433999999999856e-05
-3.030756000000000159e-05
-4.352948000000000255e-05
-4.677370000000000247e-05
-3.972362000000000169e-05
-2.451950999999999862e-05
-1.471301000000000027e-05
1.356201000000000062e-06
-2.427677999999999883e-06
-3.162712999999999953e-06
-2.775846999999999988e-05
-7.285831000000000411e-06
-1.813689000000000009e-06
-5.163084000000000151e-06
-4.360678000000000264e-05
-2.980423000000000043e-05
-1.058782999999999922e-05
-3.608441999999999933e-06
7.878501999999999671e-06
-4.566181999999999847e-05
-7.274786000000000588e-05
-3.378892999999999974e-05
-2.838000000000000187e-06
-2.597821999999999943e-05
-9.001110999999999683e-05
-6.994890999999999772e-05
-6.113413999999999741e-05
-3.770590000000000096e-05
-2.459665999999999838e-05
-3.974156999999999701e-05
-9.011068999999999698e-05
-3.246790000000000131e-05
-2.988180999999999978e-05
-3.924995000000000187e-05
-4.446762000000000235e-05
-9.985907999999999937e-05
-5.515380000000000038e-05
-4.313749999999999822e-05
-8.742774999999999993e-05
-7.825618000000000331e-05
-1.162470000000000002e-04
-1.217374000000000044e-04
-1.399848000000000086e-04
-1.103590999999999985e-04
-1.288910999999999898e-04
-1.415211999999999894e-04
-1.269129000000000025e-04
-7.918288999999999634e-05
-6.109048000000000603e-05
-6.215971999999999513e-05
-4.740062999999999682e-05
-2.365715999999999831e-05
3.681324000000000043e-06
6.099074000000000315e-06
6.020990000000000098e-05
9.250225999999999414e-05
1.098330000000000037e-04
6.183366999999999510e-05
3.377890999999999674e-05
4.042375000000000070e-05
4.613823000000000024e-05
4.372409000000000305e-05
5.621753999999999776e-05
4.334619000000000113e-05
3.851813000000000182e-05
4.411207999999999931e-05
5.441326000000000019e-05
5.337661000000000055e-05
2.675984000000000026e-05
2.334438999999999893e-05
1.533035000000000138e-05
-1.759628000000000155e-05
-2.134643000000000155e-05
-6.239300999999999777e-05
-9.223295000000000603e-05
-1.666062999999999908e-04
-2.151799000000000029e-04
-1.129668000000000040e-04
9.689741000000000575e-05
2.756238000000000156e-04
3.294061000000000038e-04
3.609799000000000232e-04
4.127269999999999940e-04
3.742535000000000176e-04
2.979216000000000242e-04
1.690328000000000056e-04
2.169340999999999869e-05
-3.620051000000000079e-05
1.023679999999999997e-05
1.612067000000000095e-05
-4.303832999999999964e-05
-1.245738000000000032e-04
-9.643025000000000056e-05
-8.049662999999999979e-05
-9.139641000000000540e-05
-8.540545000000000406e-05
-1.034432999999999994e-04
-9.649299999999999924e-05
-8.787792999999999635e-05
-9.699404000000000283e-05
-9.492063999999999656e-05
-1.070326000000000025e-04
-1.128424999999999958e-04
-1.029323000000000038e-04
-1.128037000000000055e-04
-1.248130999999999926e-04
-9.853180999999999810e-05
-7.574532999999999668e-05
-8.930756000000000252e-05
-9.651288999999999474e-05
-9.013637000000000450e-05
-9.312192000000000169e-05
-7.909160999999999405e-05
-7.742901999999999478e-05
-5.716158999999999764e-05
-5.685099000000000099e-05
-7.164896000000000188e-05
-6.654990999999999858e-05
-6.953193999999999347e-05
-7.102138999999999664e-05
-6.383651999999999914e-05
-4.399573999999999900e-05
-5.856796999999999687e-05
-6.657818999999999825e-05
-5.299847000000000217e-05
-5.825315000000000316e-05
-6.847308999999999937e-05
-4.669747000000000269e-05
-7.033635999999999686e-05
-8.338668999999999834e-05
-6.320758999999999362e-05
-2.694661999999999849e-05
-3.152854999999999818e-05
-4.246294999999999974e-05
-8.503686999999999683e-05
-3.440479999999999965e-05
1.522725000000000062e-05
1.935685000000000086e-05
2.861683999999999959e-05
1.566482000000000090e-05
-4.519162000000000084e-06
1.368047000000000016e-05
1.755569000000000132e-05
1.076921999999999987e-05
-5.573289000000000402e-06
2.548726000000000134e-06
3.064182999999999729e-05
3.589580999999999675e-05
4.423308000000000036e-05
6.162523999999999682e-05
7.750364999999999783e-05
6.840949999999999614e-05
7.327136999999999572e-05
8.851705999999999713e-05
9.998364999999999943e-05
9.438198000000000399e-05
1.053338999999999979e-04
1.065894999999999999e-04
1.326235999999999951e-04
1.271715999999999938e-04
1.330430999999999866e-04
1.204431999999999991e-04
1.114210999999999961e-04
1.213889000000000060e-04
1.060744999999999955e-04
1.027984000000000016e-04
1.187824000000000030e-04
1.317031000000000028e-04
1.155851999999999992e-04
9.020720999999999991e-05
9.335215999999999425e-05
7.540807999999999919e-05
7.918368999999999809e-05
8.179539999999999955e-05
6.511500000000000252e-05
5.320940999999999985e-05
3.749613999999999774e-05
3.106855999999999989e-05
1.993186999999999929e-05
1.895051999999999894e-05
4.868806000000000289e-05
8.254526999999999514e-05
6.042850999999999990e-05
4.636982999999999985e-05
2.266675999999999844e-05
1.143380000000000054e-05
1.957447999999999897e-05
3.333756000000000138e-05
4.032228999999999778e-05
3.127970999999999871e-05
1.735886999999999868e-05
-1.999903999999999801e-06
1.524139999999999946e-05
-4.870310999999999862e-06
4.911387999999999774e-06
1.260512999999999937e-05
1.391297000000000005e-05
2.042828000000000086e-05
3.297525999999999978e-05
1.289073999999999950e-05
1.135560000000000017e-05
-2.035436999999999991e-06
-9.190912999999999259e-06
5.444189999999999624e-06
1.924303000000000065e-05
2.711990999999999832e-05
1.975399000000000024e-05
2.640615999999999859e-05
-5.836000000000000113e-07
-1.334145000000000082e-05
-4.654034999999999733e-06
-1.762224000000000071e-06
9.476640000000000081e-07
2.224520999999999991e-06
4.047853999999999819e-06
1.051597999999999922e-05
-1.363088000000000052e-05
-4.720168000000000104e-06
-1.742027999999999934e-06
-1.581531999999999887e-05
-3.591779000000000293e-05
8.531974000000000349e-07
3.583323999999999880e-06
4.232410999999999583e-06
-1.581196000000000099e-05
-1.641026000000000168e-05
-1.246503999999999950e-05
-9.750805000000000233e-06
1.517625999999999960e-06
1.826457000000000087e-06
-2.085940999999999956e-05
-1.534803999999999883e-05
-1.986994000000000038e-05
-2.358814000000000147e-05
-4.047722000000000071e-05
-3.843928000000000172e-05
-1.869435000000000169e-05
-7.048634000000000250e-07
8.036614000000000233e-06
-1.023846999999999991e-05
-2.918314999999999858e-05
-3.157256000000000049e-05
-5.014299999999999747e-05
-5.613362000000000213e-05
-5.757399000000000067e-05
-3.704847000000000072e-05
-2.723535000000000005e-05
-3.588004999999999878e-05
-2.944053999999999985e-05
-3.620590999999999908e-05
-4.756074999999999691e-05
-3.166361000000000024e-05
-2.266882000000000025e-05
-2.749095000000000146e-05
-1.528064000000000012e-05
-6.736218000000000055e-06
1.239723999999999991e-05
1.990492000000000034e-06
-1.229791000000000030e-05
-2.874061999999999860e-05
-4.091883000000000071e-05
-4.233908000000000121e-05
-5.955116999999999789e-05
-6.118862000000000031e-05
-6.382066000000000095e-05
-8.230946000000000594e-05
-7.489615999999999342e-05
-1.010440999999999970e-04
-1.285296999999999969e-04
-1.334668000000000009e-04
-1.270292000000000068e-04
-1.205849999999999983e-04
-1.125206000000000014e-04
-7.223550999999999713e-05
-6.649583999999999725e-05
-4.429482999999999684e-05
-5.457995999999999979e-05
-6.029495000000000113e-06
7.560370000000000088e-06
1.836981999999999957e-05
4.170940999999999814e-05
7.898162999999999820e-05
9.413295999999999871e-05
1.093367000000000064e-04
1.050992999999999985e-04
7.933888999999999959e-05
6.487160999999999806e-05
7.605305000000000192e-05
8.330795000000000593e-05
8.008192000000000457e-05
7.270982000000000107e-05
6.428842999999999461e-05
6.630507000000000111e-05
6.143798000000000228e-05
3.860319000000000266e-05
2.368563999999999842e-05
-2.248293999999999975e-06
-5.168389000000000094e-05
-7.887860000000000065e-05
-9.843203999999999821e-05
-1.201246000000000052e-04
-1.739437999999999998e-04
-2.050866999999999892e-04
-1.212405999999999993e-04
1.233043999999999980e-04
3.195235999999999845e-04
4.172879999999999797e-04
4.165492000000000131e-04
4.089485000000000234e-04
3.710043000000000217e-04
3.091225999999999870e-04
2.160312000000000061e-04
9.086011000000000174e-05
-4.625597000000000362e-06
-2.942042999999999912e-05
-5.775334999999999822e-05
-1.017875999999999943e-04
-1.289425999999999875e-04
-1.093260000000000033e-04
-8.149851999999999368e-05
-9.454042000000000175e-05
-1.162424000000000036e-04
-1.372319999999999898e-04
-9.698263000000000424e-05
-8.965296000000000094e-05
-1.259188000000000115e-04
-1.087545999999999972e-04
-8.467670999999999586e-05
-8.867023000000000569e-05
-9.452277000000000031e-05
-9.496629000000000518e-05
-8.606338000000000540e-05
-8.888497999999999885e-05
-8.721572999999999446e-05
-7.494885000000000663e-05
-8.470344999999999621e-05
-9.883628000000000639e-05
-1.096947000000000053e-04
-9.006006000000000590e-05
-8.180132999999999426e-05
-6.911759999999999703e-05
-5.791269999999999865e-05
-6.305053999999999824e-05
-7.105787000000000073e-05
-5.461801999999999922e-05
-4.512028000000000094e-05
-4.712720999999999902e-05
-6.768969000000000277e-05
-7.826358000000000598e-05
-8.430426000000000250e-05
-8.280907000000000437e-05
-8.185105000000000299e-05
-3.490900000000000069e-05
-5.638734999999999809e-05
-6.191298000000000027e-05
-5.227711000000000201e-05
-7.290804000000000338e-05
-6.664126000000000576e-05
-4.686524000000000261e-05
-6.478189999999999719e-05
-8.495270000000000403e-05
-7.128367999999999510e-05
-4.479448999999999877e-05
-4.549984999999999772e-05
-4.783497999999999716e-05
-4.283306999999999951e-05
-1.655431999999999976e-05
8.095620999999999988e-06
2.463724000000000130e-05
2.772237999999999935e-05
1.732030000000000085e-05
2.508698000000000083e-05
1.512510000000000025e-05
1.715252000000000023e-05
3.993645999999999676e-05
7.581652000000000302e-05
8.747368000000000103e-05
8.912707999999999438e-05
9.247831999999999992e-05
1.122409999999999982e-04
1.172988000000000025e-04
1.234468999999999920e-04
1.325789999999999922e-04
1.225812000000000115e-04
1.042584000000000045e-04
1.069919000000000013e-04
1.054746000000000015e-04
1.293346000000000068e-04
1.282560000000000134e-04
1.261636000000000062e-04
1.358134999999999898e-04
1.189492999999999963e-04
1.078294999999999948e-04
8.243000999999999584e-05
7.901991999999999339e-05
7.201108000000000444e-05
7.970730999999999563e-05
9.485791999999999998e-05
8.151936000000000143e-05
7.331233000000000151e-05
5.694351000000000192e-05
4.718889999999999809e-05
7.364406000000000587e-05
5.361380999999999889e-05
3.532726000000000030e-05
4.657578000000000082e-05
5.157455000000000242e-05
3.462591999999999797e-05
1.842067999999999996e-05
2.250573999999999977e-05
1.857995000000000157e-05
5.628889000000000344e-06
2.672926999999999964e-05
2.066125000000000145e-05
2.443781999999999975e-05
1.430932000000000007e-05
2.110126999999999863e-05
1.514968000000000028e-05
-4.733687000000000372e-06
1.088210000000000039e-05
1.661759000000000093e-05
-3.605567999999999798e-06
-1.035000999999999986e-05
3.106535000000000150e-06
-7.308349000000000269e-07
-1.929858999999999864e-06
-2.095661999999999994e-05
-9.685523000000000271e-06
-5.559987999999999798e-06
2.389178000000000167e-06
1.425729000000000085e-05
4.256516000000000092e-05
2.133248000000000146e-05
2.186454999999999973e-06
-6.635695999999999732e-06
1.446208000000000029e-05
9.600054000000000633e-06
-8.272581000000000747e-06
6.954780000000000182e-06
1.039278000000000013e-05
-1.054668999999999948e-05
-2.641527999999999961e-06
8.636794999999999696e-06
1.305045999999999998e-06
-1.047290999999999999e-05
-1.687234000000000048e-05
-6.701409999999999760e-06
-5.752835000000000122e-06
-1.577041000000000136e-05
-8.069159999999999498e-06
-3.757674000000000168e-06
-2.216783000000000016e-05
-1.945543999999999952e-05
-3.617954999999999820e-05
-3.468880999999999966e-05
-6.450210999999999762e-06
-1.627048999999999878e-05
-1.692539000000000161e-05
-7.339212999999999691e-06
-2.720728000000000152e-05
-2.816576999999999850e-05
-2.084664000000000070e-05
-1.767315999999999936e-05
-2.913263999999999895e-05
-3.807443999999999862e-05
-4.092099000000000273e-05
-3.234946999999999709e-05
-2.902034000000000005e-05
-3.760503999999999935e-05
-3.412983000000000184e-05
-3.780117999999999846e-05
-4.208218000000000033e-05
-4.648504000000000243e-05
-5.110252000000000213e-05
-3.870245000000000076e-05
-2.611310999999999976e-05
-3.033983999999999986e-05
-5.002413000000000313e-05
-5.190711999999999778e-05
-4.904367999999999797e-05
-4.994408000000000040e-05
-3.497077999999999927e-05
-3.748690000000000187e-05
-5.072459999999999881e-05
-4.708804999999999718e-05
-2.680339000000000088e-05
-2.175675999999999869e-05
-4.888806000000000098e-05
-3.734611999999999947e-05
-4.286277999999999757e-05
-5.442448999999999974e-05
-4.886694000000000075e-05
-3.242219000000000204e-05
-5.893896999999999721e-05
-6.224632999999999599e-05
-7.179185999999999673e-05
-7.501125999999999508e-05
-8.570642999999999860e-05
-8.042844000000000002e-05
-8.687141000000000383e-05
-1.001604999999999976e-04
-1.147383999999999991e-04
-1.164917000000000014e-04
-1.291970000000000032e-04
-1.328323000000000123e-04
-1.161546999999999943e-04
-7.070908999999999626e-05
-6.329039999999999970e-05
-3.285211999999999811e-05
-1.754106000000000109e-05
-1.143428999999999924e-05
2.049048999999999904e-05
4.991040000000000244e-05
4.393421999999999828e-05
4.901124999999999937e-05
5.864886999999999808e-05
6.390216999999999740e-05
6.585484000000000118e-05
5.902419000000000247e-05
5.786704000000000289e-05
6.286433999999999653e-05
8.144252999999999356e-05
5.908489000000000004e-05
6.256880000000000308e-05
5.948102999999999724e-05
5.157226999999999878e-05
5.150274000000000014e-05
3.509365000000000238e-05
2.041879999999999837e-05
-4.483061999999999701e-06
-3.408616000000000299e-05
-4.315090000000000050e-05
-6.614582000000000090e-05
-1.043237000000000054e-04
-1.696233000000000061e-04
-2.084962000000000046e-04
-1.391329999999999976e-04
1.178686999999999986e-04
3.601745000000000055e-04
4.333572000000000053e-04
4.398831999999999764e-04
4.341961999999999883e-04
3.529606000000000236e-04
2.761875000000000115e-04
2.129330000000000025e-04
1.050874000000000063e-04
1.126727000000000054e-06
-3.246210000000000214e-05
-2.926653000000000048e-05
-8.052890999999999468e-05
-1.233553000000000080e-04
-1.065181000000000060e-04
-7.189011999999999941e-05
-9.674752999999999695e-05
-1.258948000000000131e-04
-1.145207000000000028e-04
-8.253161000000000178e-05
-1.009772999999999997e-04
-1.079867999999999941e-04
-1.045048000000000027e-04
-9.462244999999999391e-05
-9.006204999999999604e-05
-7.743697999999999597e-05
-7.553013999999999984e-05
-8.583523999999999711e-05
-7.840606999999999926e-05
-9.819090000000000207e-05
-1.070805000000000059e-04
-1.004967999999999964e-04
-6.330909000000000612e-05
-5.584902000000000150e-05
-5.677030000000000092e-05
-5.504989000000000225e-05
-4.635109999999999740e-05
-5.968835999999999988e-05
-5.812790999999999688e-05
-5.806916000000000020e-05
-4.329563000000000140e-05
-5.522492000000000183e-05
-5.768426000000000326e-05
-5.109612000000000165e-05
-5.003978000000000018e-05
-4.951513999999999905e-05
-5.858842999999999836e-05
-4.788214000000000299e-05
-5.338030000000000119e-05
-5.874787999999999901e-05
-4.420330999999999810e-05
-4.364763000000000074e-05
-6.353667000000000234e-05
-5.451083000000000203e-05
-4.774188999999999701e-05
-4.641079999999999956e-05
-5.705845999999999986e-05
-5.821166000000000095e-05
-4.378068999999999841e-05
-1.887074000000000154e-05
-2.206457000000000007e-05
-1.251414999999999944e-05
-3.202524000000000240e-05
-2.316488000000000106e-05
1.021319000000000004e-05
1.538561000000000125e-05
3.192811999999999815e-05
4.299885000000000252e-05
3.616261999999999970e-05
4.883993000000000183e-05
6.137718000000000449e-05
7.265634000000000035e-05
9.182146000000000567e-05
1.018040000000000031e-04
9.676484000000000170e-05
1.056569999999999948e-04
1.116700000000000066e-04
1.153278000000000040e-04
1.223575000000000021e-04
1.235564000000000085e-04
1.432209999999999896e-04
1.539014999999999969e-04
1.392491999999999949e-04
1.267455000000000014e-04
1.175586999999999964e-04
1.006790000000000029e-04
1.263050000000000045e-04
1.353197000000000048e-04
1.386578000000000127e-04
8.780057000000000562e-05
6.685297000000000310e-05
1.142435000000000049e-04
1.138485000000000061e-04
1.081650999999999988e-04
1.204708000000000054e-04
9.160565000000000613e-05
6.790091999999999363e-05
7.922557000000000048e-05
7.571590999999999857e-05
6.168568999999999723e-05
6.922925000000000129e-05
6.489190999999999514e-05
6.977793000000000363e-05
5.196657000000000278e-05
3.713617000000000328e-05
4.259477999999999946e-05
2.939691000000000041e-05
4.339395000000000150e-05
2.560188999999999892e-05
3.351853000000000314e-05
1.891602000000000122e-05
3.105737000000000314e-05
2.707690000000000159e-05
2.734730000000000158e-05
2.780692000000000108e-05
2.293695000000000068e-05
1.664540000000000160e-05
6.734284999999999848e-06
1.338787000000000062e-05
1.194903999999999969e-05
9.060171000000000774e-06
2.170586999999999959e-05
2.104135999999999873e-05
1.400885000000000056e-05
5.125188000000000167e-06
3.412857000000000264e-07
5.725843999999999824e-06
4.086850999999999913e-06
-9.475273999999999432e-06
-1.695590000000000142e-05
-1.068745000000000048e-05
-1.065268999999999982e-05
-2.704965999999999844e-06
1.227288999999999999e-05
1.562438000000000100e-05
-3.891451000000000056e-06
-5.226268999999999614e-06
6.344183000000000343e-06
6.275249000000000369e-07
-6.963729000000000086e-06
-1.779906000000000056e-06
-1.156807000000000070e-06
-3.942006999999999678e-06
-1.891505000000000112e-05
-2.020819000000000006e-05
-1.754853999999999919e-05
-3.394900000000000310e-05
-1.642932000000000011e-05
-2.227658000000000145e-05
-2.242494999999999948e-05
-3.345057999999999983e-05
-2.533588000000000111e-05
-2.732762000000000044e-05
-2.662762000000000036e-05
-2.904792000000000157e-05
-2.785891999999999991e-05
-2.045792000000000080e-05
-1.573384000000000113e-05
-1.993694999999999891e-05
-2.041963999999999954e-05
-1.399243999999999948e-05
-2.312421999999999931e-05
-2.449984999999999888e-05
-2.767204999999999876e-05
-3.967035000000000212e-05
-4.024939000000000056e-05
-4.432650999999999719e-05
-4.574972000000000148e-05
-3.279649999999999677e-05
-2.923544000000000075e-05
-2.911307999999999943e-05
-4.104177000000000194e-05
-3.069548999999999704e-05
-2.093379999999999937e-05
-2.969207999999999846e-05
-2.543872999999999962e-05
-2.441702999999999888e-05
-4.715457000000000210e-05
-5.563933999999999709e-05
-2.955144999999999978e-05
-1.515521999999999989e-05
-3.546142000000000039e-05
-4.058349000000000131e-05
-4.597073999999999957e-05
-4.786944000000000225e-05
-4.782489000000000282e-05
-2.709432000000000049e-05
-2.231896999999999885e-05
-2.616335000000000083e-05
-3.441467999999999963e-05
-2.676379999999999946e-05
-3.202950000000000225e-05
-4.511812999999999962e-05
-4.084029000000000196e-05
-2.948856000000000147e-05
-2.818915000000000098e-05
-3.871224000000000122e-05
-4.532838999999999716e-05
-4.989794999999999886e-05
-4.025946000000000028e-05
-3.550465000000000234e-05
-4.701199000000000252e-05
-6.471693000000000584e-05
-5.916695000000000108e-05
-7.925206999999999760e-05
-9.199366000000000379e-05
-1.044455999999999949e-04
-1.105787999999999991e-04
-1.194601999999999985e-04
-1.311574999999999991e-04
-1.374410000000000009e-04
-1.081309999999999986e-04
-1.020177000000000041e-04
-8.716140000000000205e-05
-6.848955999999999957e-05
-6.205773000000000257e-05
-4.007471999999999906e-05
-1.086428000000000061e-05
2.072974999999999918e-05
2.733430000000000018e-05
7.708242999999999443e-06
4.109485000000000178e-05
6.794064999999999469e-05
5.679558000000000078e-05
6.057482999999999683e-05
6.014092000000000016e-05
6.767097999999999495e-05
7.055054000000000435e-05
6.941547000000000440e-05
5.791812999999999904e-05
5.623976000000000040e-05
5.616166999999999926e-05
6.969487999999999432e-05
5.933205999999999788e-05
6.141422999999999425e-05
4.006105999999999892e-05
7.630200000000000231e-06
-4.965604000000000307e-05
-6.477919999999999805e-05
-6.117406999999999890e-05
-7.557426999999999700e-05
-1.285826000000000113e-04
-2.042806000000000038e-04
-2.091771999999999935e-04
-1.792189999999999861e-05
2.324480999999999878e-04
3.794242000000000187e-04
3.979472000000000174e-04
3.958664000000000085e-04
3.782977000000000084e-04
3.119390000000000097e-04
2.389476000000000024e-04
1.426226000000000056e-04
3.478045000000000003e-05
-1.076066999999999975e-05
-2.082934000000000003e-05
-6.076594000000000320e-05
-1.118131000000000019e-04
-1.247672999999999870e-04
-8.682396000000000482e-05
-8.028882000000000423e-05
-1.106149999999999972e-04
-1.340114999999999959e-04
-1.152108000000000049e-04
-9.770721000000000603e-05
-1.278312000000000035e-04
-1.418738999999999970e-04
-1.146075999999999969e-04
-1.045883999999999963e-04
-9.513392999999999600e-05
-9.559917000000000241e-05
-7.772234999999999626e-05
-7.658316999999999338e-05
-9.264881000000000039e-05
-8.456104999999999568e-05
-9.512001999999999870e-05
-8.740896000000000006e-05
-8.334860000000000359e-05
-7.388145999999999787e-05
-7.934114999999999506e-05
-8.179624000000000411e-05
-7.114767999999999505e-05
-6.500292999999999599e-05
-6.278432999999999660e-05
-6.122367999999999994e-05
-6.880350999999999340e-05
-6.431384999999999750e-05
-5.261435999999999950e-05
-6.440095000000000552e-05
-6.372080999999999546e-05
-3.897975999999999964e-05
-3.930256999999999664e-05
-4.555010999999999679e-05
-5.580568999999999932e-05
-4.587742999999999758e-05
-4.986498999999999706e-05
-4.132930999999999817e-05
-4.231799999999999700e-05
-4.421103999999999675e-05
-3.906397000000000200e-05
-3.563507999999999899e-05
-4.202913000000000260e-05
-5.361658000000000293e-05
-4.646091000000000169e-05
-3.782830999999999900e-05
-3.635304999999999917e-05
-3.141218000000000254e-05
1.956367000000000170e-06
1.310180999999999950e-05
1.470364000000000039e-05
3.834932000000000369e-06
-2.271905999999999962e-06
2.210377999999999863e-05
4.858822999999999880e-05
5.799756999999999976e-05
7.267159999999999722e-05
7.712811000000000515e-05
7.145373000000000544e-05
8.762131000000000151e-05
8.769346999999999440e-05
8.881490000000000240e-05
9.956761000000000604e-05
1.150482999999999942e-04
1.278637000000000003e-04
1.162693000000000016e-04
1.186656000000000044e-04
1.364330999999999931e-04
1.440768000000000094e-04
1.361926000000000011e-04
1.228852000000000004e-04
9.959261999999999379e-05
9.887212999999999352e-05
1.082638999999999986e-04
1.028027999999999977e-04
1.000591999999999991e-04
9.819372999999999676e-05
9.227459000000000518e-05
7.675000999999999601e-05
1.027484000000000004e-04
9.985390000000000292e-05
8.401721000000000666e-05
7.856826000000000185e-05
7.138764000000000351e-05
6.795322000000000666e-05
4.656735000000000063e-05
5.272739999999999936e-05
4.938443999999999706e-05
5.388888999999999762e-05
5.708213000000000230e-05
5.115931999999999793e-05
2.816652000000000015e-05
3.637235000000000083e-05
5.068870000000000141e-05
4.121554000000000146e-05
1.812909000000000077e-06
-3.033471000000000098e-06
1.604588000000000027e-05
4.329409000000000209e-05
3.980978999999999887e-05
2.518075999999999843e-05
1.934761000000000160e-05
2.220664999999999854e-05
1.524803999999999979e-05
2.781671000000000154e-05
2.064664999999999993e-05
6.630224999999999696e-06
3.557324000000000299e-05
3.369873999999999916e-05
3.199626000000000119e-05
1.389966000000000068e-05
4.845238999999999808e-06
8.866272999999999602e-06
3.787781000000000081e-06
2.413117000000000074e-06
1.122011999999999923e-05
1.035535000000000073e-05
-2.129880000000000011e-06
5.784882000000000224e-06
2.128706999999999946e-05
1.420561000000000069e-05
1.359161000000000030e-06
5.105920999999999627e-06
1.321431999999999955e-05
3.115907999999999899e-06
1.567760000000000047e-05
-8.771085999999999797e-06
-1.009245000000000025e-05
-2.101446000000000073e-05
-7.619344000000000415e-06
-3.770480999999999840e-06
-1.094725999999999952e-06
-1.486250000000000043e-05
-3.737238000000000013e-05
-1.683640000000000028e-05
-6.704349000000000208e-06
-2.220067000000000034e-05
-3.036519999999999855e-05
-2.950005999999999958e-05
-3.743488000000000165e-05
-3.368175999999999717e-05
-1.600149999999999918e-05
-2.178350999999999890e-06
-2.498092999999999869e-05
-2.416096999999999917e-05
-2.351475000000000047e-05
-3.947105999999999949e-05
-5.088352999999999697e-05
-4.529441999999999925e-05
-2.487500000000000155e-05
-1.970325000000000147e-05
-2.726564999999999873e-05
-3.350714999999999987e-05
-4.547445000000000301e-05
-4.104126000000000014e-05
-7.072792999999999962e-05
-4.837709000000000068e-05
-2.559074999999999889e-05
-3.140289000000000318e-05
-5.361979999999999779e-05
-4.350105999999999987e-05
-4.314180000000000087e-05
-5.665748999999999682e-05
-3.766163000000000079e-05
-3.462725000000000292e-05
-4.564456999999999792e-05
-5.561242999999999840e-05
-5.821293000000000170e-05
-7.368190999999999738e-05
-7.621452999999999550e-05
-8.263750999999999681e-05
-8.268093999999999921e-05
-1.090559000000000005e-04
-1.195812000000000063e-04
-1.292791000000000003e-04
-1.395531000000000039e-04
-1.388643000000000115e-04
-1.396047999999999885e-04
-1.182405000000000007e-04
-9.476029000000000071e-05
-7.522317999999999355e-05
-5.923409000000000194e-05
-3.086714999999999804e-05
1.862591999999999869e-05
4.021940999999999716e-05
3.651857999999999824e-05
2.999216000000000119e-05
3.868156999999999699e-05
7.598316000000000521e-05
6.580214000000000083e-05
5.038192000000000093e-05
5.174870000000000143e-05
6.070579999999999737e-05
5.726855999999999977e-05
4.818495999999999749e-05
4.827322999999999928e-05
3.712315000000000048e-05
3.254049999999999787e-05
5.118206000000000307e-05
4.654013000000000057e-05
2.536136999999999872e-05
9.370388999999999165e-06
-7.380909000000000384e-06
-5.469585000000000251e-05
-3.450824999999999948e-05
-1.842626000000000067e-05
-8.740238000000000054e-05
-1.544132999999999942e-04
-2.095223999999999915e-04
-1.214119999999999956e-04
1.199680999999999941e-04
3.099913999999999946e-04
3.670929999999999766e-04
3.558761000000000129e-04
3.591447999999999906e-04
3.239534999999999876e-04
2.663955000000000077e-04
1.772517000000000092e-04
8.717541999999999349e-05
1.862038000000000077e-05
-8.619164000000000271e-06
-3.402503000000000244e-05
-8.561948000000000106e-05
-1.129015999999999966e-04
-1.111169000000000067e-04
-9.441336000000000368e-05
-9.769446999999999571e-05
-1.114543999999999946e-04
-1.007575000000000056e-04
-9.554742000000000074e-05
-1.067976999999999956e-04
-1.257157999999999865e-04
-1.094188999999999969e-04
-8.583538999999999405e-05
-8.420712999999999755e-05
-9.354861999999999542e-05
-9.888508000000000497e-05
-9.250047000000000445e-05
-8.424621999999999450e-05
-7.823956999999999331e-05
-9.868441999999999460e-05
-9.167565999999999769e-05
-5.846879999999999829e-05
-7.218117000000000402e-05
-6.855000999999999998e-05
-7.476492000000000109e-05
-7.660847000000000143e-05
-8.204130000000000342e-05
-5.131648000000000101e-05
-4.258431999999999956e-05
-3.436207999999999949e-05
-4.101700999999999779e-05
-4.669802000000000051e-05
-6.146688000000000466e-05
-6.130700000000000103e-05
-5.637850000000000240e-05
-4.068347000000000234e-05
-3.598959999999999844e-05
-3.627757999999999835e-05
-5.314743000000000082e-05
-4.712065000000000090e-05
-5.050770999999999825e-05
-3.468661000000000162e-05
-3.474661999999999835e-05
-6.622882000000000671e-05
-6.330404000000000521e-05
-6.007037999999999863e-05
-4.708542999999999686e-05
-3.721648999999999780e-05
-3.020788999999999853e-05
-7.806646999999999323e-06
-1.748149999999999941e-06
6.531055999999999663e-06
2.883917999999999855e-05
2.208410000000000088e-05
7.282210000000000197e-06
1.218156999999999999e-05
2.599433000000000155e-05
3.855670000000000305e-05
5.664341000000000119e-05
6.603998999999999720e-05
7.894733999999999823e-05
8.066580000000000278e-05
7.986024000000000096e-05
8.593577999999999666e-05
1.043037000000000022e-04
1.089060999999999973e-04
1.078040999999999933e-04
1.130344999999999966e-04
1.282846000000000084e-04
1.368371999999999915e-04
1.318686000000000066e-04
1.352110999999999970e-04
1.138211000000000002e-04
1.101381999999999952e-04
1.096032000000000012e-04
1.218085999999999979e-04
1.269649000000000081e-04
1.021413000000000041e-04
1.178695000000000003e-04
1.188909999999999972e-04
9.721146000000000658e-05
9.138860000000000115e-05
9.382058000000000628e-05
8.265589999999999580e-05
8.490120999999999345e-05
9.953606999999999516e-05
8.296431999999999581e-05
5.113495000000000074e-05
4.970266999999999893e-05
6.012259999999999930e-05
4.653174000000000318e-05
3.889778999999999812e-05
5.420932999999999823e-05
5.146653000000000138e-05
4.542998000000000240e-05
2.844012000000000037e-05
3.066364999999999906e-05
2.808797000000000070e-05
2.763686000000000021e-05
3.414254999999999721e-05
4.157813000000000302e-05
4.220261000000000216e-05
4.486771999999999874e-05
3.242176999999999977e-05
2.576456999999999852e-05
3.151271000000000139e-05
2.678633000000000007e-05
2.260040999999999865e-05
3.167286999999999750e-05
3.650970000000000045e-05
4.024023999999999743e-05
2.037336000000000106e-05
1.087798000000000016e-05
1.486918999999999917e-05
2.224063000000000054e-05
2.088530999999999876e-05
2.002402999999999961e-06
1.878819000000000010e-05
1.043642000000000028e-05
2.074442999999999952e-05
3.785319999999999869e-05
2.501245000000000139e-05
-6.424889000000000007e-06
-5.549366000000000089e-06
1.298670000000000053e-05
1.698907000000000097e-05
-2.498246000000000068e-06
1.845481999999999960e-05
2.275155000000000073e-05
4.469723000000000167e-06
-7.706451000000000799e-06
-1.091661999999999951e-05
-2.341073999999999873e-05
-1.824198999999999846e-05
-1.165051000000000037e-05
-2.749868000000000096e-06
3.310027000000000183e-06
-6.783985000000000406e-06
-1.901177999999999842e-05
-2.103255999999999976e-05
-3.136553999999999921e-05
-1.832915000000000051e-05
-6.447311000000000179e-06
-2.054366999999999909e-05
-3.504380999999999881e-05
-3.575361999999999735e-05
-3.463314000000000160e-05
-3.274916999999999938e-05
-3.546698000000000309e-05
-3.942720000000000090e-05
-3.194598000000000072e-05
-2.879434999999999986e-05
-3.283127999999999714e-05
-3.616076999999999904e-05
-2.494482000000000014e-05
-1.953699999999999946e-05
-2.157319999999999870e-05
-3.955048999999999951e-05
-4.729937000000000112e-05
-4.445610000000000284e-05
-3.963425999999999820e-05
-3.279671999999999861e-05
-4.362627999999999797e-05
-5.859530999999999854e-05
-6.717647000000000093e-05
-5.504251000000000098e-05
-4.868668000000000122e-05
-6.707159999999999663e-05
-7.428321999999999519e-05
-6.879820000000000141e-05
-8.956191000000000119e-05
-1.130553999999999950e-04
-1.200511999999999933e-04
-1.034449999999999964e-04
-1.066444000000000051e-04
-1.188706000000000067e-04
-1.379111000000000085e-04
-1.404595000000000127e-04
-1.430407000000000076e-04
-1.511283999999999946e-04
-1.398540999999999999e-04
-1.101505999999999953e-04
-1.126142999999999968e-04
-8.506797000000000403e-05
-4.380096000000000017e-05
-3.955627999999999797e-05
-1.077935000000000040e-05
1.209580999999999931e-06
1.208735999999999941e-05
3.465577999999999975e-05
3.859664999999999917e-05
3.455758000000000126e-05
3.109623999999999825e-05
5.152711999999999803e-05
4.112855000000000113e-05
2.801382000000000075e-05
5.382592999999999780e-05
4.410604999999999761e-05
3.206614999999999791e-05
2.657638000000000049e-05
3.011398999999999931e-05
2.981353000000000049e-05
3.439187000000000315e-05
2.648564999999999942e-05
7.809570999999999568e-06
-6.165572000000000131e-05
-1.113782000000000037e-04
-1.045914000000000029e-04
-1.061626999999999992e-04
-1.689019999999999899e-04
-2.235082999999999959e-04
-2.372153000000000055e-04
-4.361114999999999664e-05
2.238038999999999936e-04
3.831533999999999830e-04
4.123482999999999836e-04
4.124573000000000193e-04
3.643927000000000255e-04
2.974726999999999818e-04
2.355156999999999921e-04
1.385055999999999907e-04
2.322186999999999998e-05
-4.473682000000000309e-05
-5.002752000000000311e-05
-7.375476999999999858e-05
-1.129672000000000049e-04
-1.256666999999999940e-04
-8.566483000000000225e-05
-7.821352000000000057e-05
-1.097871999999999981e-04
-1.210316000000000018e-04
-1.126330999999999974e-04
-1.095335000000000042e-04
-1.169627000000000042e-04
-1.248506999999999937e-04
-1.147739000000000024e-04
-1.024809000000000033e-04
-1.068286000000000024e-04
-1.079162000000000019e-04
-8.669786999999999329e-05
-7.220608999999999903e-05
-7.053164999999999749e-05
-7.861850999999999345e-05
-9.812604000000000487e-05
-9.051360999999999413e-05
-8.893436999999999805e-05
-7.054258000000000316e-05
-3.743597000000000336e-05
-3.876099000000000308e-05
-4.829144999999999992e-05
-5.398478999999999783e-05
-5.365036000000000110e-05
-6.353768000000000523e-05
-5.476951999999999938e-05
-4.115840000000000221e-05
-4.815775999999999884e-05
-4.744837000000000257e-05
-4.208641999999999879e-05
-4.522215999999999937e-05
-4.859869999999999940e-05
-5.002147000000000001e-05
-6.489984999999999493e-05
-5.900484999999999801e-05
-4.836831000000000312e-05
-4.130710000000000301e-05
-3.613159999999999809e-05
-2.979793000000000017e-05
-3.816048000000000026e-05
-6.560966999999999418e-05
-6.108103999999999617e-05
-6.037631000000000063e-05
-3.816915999999999761e-05
-2.701736000000000046e-05
-2.785236999999999910e-05
-9.068242999999999974e-06
1.639690000000000093e-06
5.434338000000000417e-06
1.441786999999999923e-05
2.451629000000000037e-05
4.234886000000000097e-05
5.440330000000000139e-05
7.961916999999999617e-05
7.793942000000000263e-05
7.416975999999999983e-05
7.962924999999999658e-05
8.407389000000000084e-05
1.052699000000000066e-04
1.176795999999999973e-04
1.363799000000000120e-04
1.441986999999999989e-04
1.490498000000000040e-04
1.458348999999999952e-04
1.323538000000000134e-04
1.572990000000000130e-04
1.602244999999999971e-04
1.526641999999999875e-04
1.591994000000000059e-04
1.695300999999999915e-04
1.578184000000000000e-04
1.468061000000000105e-04
1.480273000000000049e-04
1.197150000000000015e-04
1.267227000000000056e-04
1.169867999999999960e-04
1.220016000000000010e-04
1.120969000000000007e-04
1.038467000000000030e-04
8.223490999999999494e-05
9.316636999999999412e-05
8.372297999999999644e-05
7.142236000000000645e-05
7.420836000000000316e-05
6.566583999999999334e-05
5.880356999999999848e-05
3.888848999999999805e-05
3.897819999999999893e-05
4.500204999999999716e-05
4.142053000000000304e-05
3.499562000000000224e-05
3.168478999999999789e-05
3.658075999999999770e-05
4.688873999999999993e-05
4.273125999999999921e-05
3.054995000000000047e-05
2.849191999999999876e-05
4.316689000000000100e-05
2.457321999999999848e-05
2.972458999999999928e-05
2.120287000000000118e-05
-2.126234000000000165e-06
-5.524019999999999671e-06
9.747145000000000001e-06
5.595745000000000242e-06
3.201416999999999794e-06
1.741461000000000164e-05
2.043947999999999832e-05
1.028883999999999990e-05
3.964110999999999967e-06
5.242182999999999713e-06
-1.253858999999999983e-05
-2.393462000000000091e-05
-2.349170000000000075e-05
-1.650568999999999951e-05
-2.505592999999999797e-06
1.291713999999999979e-05
1.456449000000000021e-05
7.505411999999999656e-06
-1.757505000000000040e-05
-1.220645999999999968e-05
-2.512030000000000071e-05
-2.307743999999999974e-05
-3.326178999999999990e-05
-3.052607999999999759e-05
-2.994439000000000012e-05
-3.383664000000000338e-05
-4.410410999999999742e-05
-2.656316000000000064e-05
-3.182764000000000280e-05
-4.357529000000000204e-05
-4.162616000000000195e-05
-4.511132999999999826e-05
-3.357891999999999935e-05
-3.376455000000000184e-05
-2.451924000000000006e-05
-3.455478000000000190e-05
-5.091603000000000047e-05
-4.958873999999999780e-05
-3.205030000000000043e-05
-2.813078000000000038e-05
-2.779976000000000165e-05
-2.979837000000000046e-05
-5.291299999999999975e-05
-4.277145999999999926e-05
-3.291157999999999703e-05
-4.577039999999999803e-05
-5.074122999999999665e-05
-6.003907999999999776e-05
-3.267609999999999704e-05
-3.415967000000000222e-05
-4.740022000000000202e-05
-4.697725999999999888e-05
-4.092645999999999914e-05
-3.808739999999999722e-05
-2.636495999999999973e-05
-2.039668999999999919e-06
-3.058746000000000208e-05
-4.542253999999999693e-05
-2.980754999999999890e-05
-1.870868999999999858e-05
-3.509738999999999974e-05
-3.401093999999999933e-05
-2.275722000000000096e-05
-2.492624000000000142e-05
-2.765960999999999927e-05
-2.964325999999999848e-05
-2.541787000000000064e-05
-2.748684999999999925e-05
-3.979698999999999791e-05
-3.854420999999999667e-05
-3.704548000000000162e-05
-2.981130000000000035e-05
-2.057344000000000135e-05
-2.803217000000000032e-05
-3.996719999999999911e-05
-4.008002999999999783e-05
-5.465969000000000047e-05
-4.794026999999999696e-05
-5.775197999999999725e-05
-5.880512999999999919e-05
-6.186801999999999926e-05
-8.340134000000000675e-05
-1.033351999999999996e-04
-1.183713999999999963e-04
-1.175181999999999957e-04
-1.246634000000000099e-04
-1.208286999999999973e-04
-1.105543000000000064e-04
-9.964491999999999328e-05
-8.501213000000000086e-05
-4.288636000000000049e-05
-3.363187999999999757e-05
-3.789925000000000140e-05
-9.687371999999999853e-06
2.474399000000000159e-05
2.968116000000000027e-05
4.064367999999999708e-05
4.781980999999999981e-05
4.963368999999999811e-05
5.427922000000000172e-05
6.917662000000000583e-05
6.983694999999999888e-05
6.850072999999999492e-05
7.969977999999999741e-05
6.653493999999999489e-05
5.817769999999999696e-05
5.464511999999999766e-05
4.755710999999999977e-05
7.637898999999999427e-05
7.345535000000000475e-05
6.901543000000000543e-05
4.456556000000000298e-05
-4.943688999999999687e-06
-5.117500999999999777e-05
-7.463748000000000355e-05
-6.718621000000000467e-05
-9.270910000000000316e-05
-1.491758000000000092e-04
-2.076957000000000044e-04
-1.843388000000000112e-04
1.300096999999999929e-05
2.600953000000000032e-04
4.168826000000000259e-04
4.349177999999999985e-04
4.195234000000000159e-04
3.688208000000000111e-04
3.082566999999999924e-04
2.466705999999999825e-04
1.230566999999999902e-04
1.881184000000000114e-05
-8.361298999999999649e-06
-2.423210000000000132e-05
-4.807400000000000085e-05
-9.612435000000000066e-05
-1.084943000000000024e-04
-8.581896999999999735e-05
-8.119980999999999532e-05
-1.022951999999999960e-04
-1.003975000000000023e-04
-8.881547000000000161e-05
-7.159162000000000219e-05
-8.434870999999999493e-05
-9.965599999999999589e-05
-9.034177999999999480e-05
-7.246752000000000510e-05
-8.413207000000000508e-05
-1.070824000000000033e-04
-1.007495999999999950e-04
-7.992709000000000185e-05
-7.431101000000000123e-05
-7.303071000000000606e-05
-6.843434999999999980e-05
-7.121081999999999391e-05
-6.724494999999999388e-05
-5.876362000000000236e-05
-6.076710000000000304e-05
-6.998739000000000620e-05
-6.406168000000000225e-05
-5.407970999999999726e-05
-5.018854999999999909e-05
-5.418079000000000070e-05
-5.543757999999999786e-05
-3.645850999999999731e-05
-4.120768000000000049e-05
-4.865909000000000239e-05
-3.915530000000000101e-05
-4.622471999999999947e-05
-5.701627000000000290e-05
-6.716515999999999578e-05
-5.773421000000000098e-05
-5.104296000000000299e-05
-5.864924999999999755e-05
-7.255456999999999608e-05
-8.162448999999999681e-05
-6.475372000000000452e-05
-3.372726000000000207e-05
-2.915608999999999955e-05
-3.623862999999999764e-05
-3.436697999999999668e-05
-3.582249999999999795e-05
-2.810811000000000014e-05
-3.103027999999999863e-05
-4.860883000000000331e-05
-1.615800000000000013e-05
-1.132432000000000070e-05
-3.930887000000000198e-06
1.451723999999999994e-05
2.287444999999999916e-05
2.762873000000000068e-05
3.696781999999999667e-05
4.864673999999999903e-05
6.859430999999999547e-05
7.204978000000000120e-05
8.038963999999999626e-05
9.375765999999999571e-05
8.349195000000000282e-05
9.614754999999999732e-05
1.199405999999999948e-04
1.381615999999999953e-04
1.287966999999999996e-04
1.308225999999999898e-04
1.240945000000000025e-04
1.201593000000000067e-04
1.230624999999999894e-04
1.272357000000000056e-04
1.192348000000000057e-04
1.278228999999999921e-04
1.490847000000000060e-04
1.416811000000000079e-04
1.215349000000000008e-04
1.089387000000000011e-04
9.610813000000000439e-05
8.661794999999999965e-05
1.148867999999999992e-04
1.038266999999999998e-04
8.443676000000000165e-05
9.022551999999999330e-05
1.012503999999999954e-04
9.305694999999999679e-05
5.728004999999999718e-05
3.907783000000000258e-05
3.442414999999999803e-05
3.872879000000000024e-05
3.434889999999999905e-05
3.121392999999999813e-05
4.051144000000000256e-05
2.572975999999999944e-05
2.622456000000000019e-05
