2.004000e+00 -1.182439e-04 0.000000e+00 4.120105e-05 -1.182439e-04 1.049019e-02 9.462363e-01 -9.463545e-01
2.008000e+00 -2.425354e-04 -1.003611e-14 -6.162756e-06 -2.425354e-04 1.036056e-02 9.269171e-01 -9.271596e-01
2.012000e+00 -2.801017e-04 -1.954491e-14 -4.450415e-05 -2.801017e-04 1.031464e-02 9.006472e-01 -9.009273e-01
2.016000e+00 -7.329637e-05 -4.145080e-14 -2.223153e-05 -7.329637e-05 1.051596e-02 8.649085e-01 -8.649817e-01
2.020000e+00 2.210737e-04 -3.582134e-15 3.046940e-05 2.210737e-04 1.081372e-02 8.158591e-01 -8.156381e-01
2.024000e+00 3.716992e-04 1.042991e-13 4.565453e-05 3.716992e-04 1.097576e-02 7.494331e-01 -7.490614e-01
2.028000e+00 3.793681e-04 1.891792e-13 1.817070e-06 3.793681e-04 1.099787e-02 6.587982e-01 -6.584188e-01
2.032000e+00 3.883415e-04 1.023081e-13 -3.604847e-05 3.883415e-04 1.102182e-02 5.394500e-01 -5.390616e-01
2.036000e+00 4.249063e-04 -3.517827e-15 -2.331213e-05 4.249063e-04 1.107442e-02 3.902260e-01 -3.898011e-01
2.040000e+00 4.074509e-04 3.496209e-14 2.489520e-05 4.074509e-04 1.107360e-02 2.189193e-01 -2.185118e-01
2.044000e+00 3.403793e-04 1.422021e-13 4.052947e-05 3.403793e-04 1.102191e-02 9.444023e-03 -9.103644e-03
2.048000e+00 2.548071e-04 1.832299e-13 -3.926533e-06 2.548071e-04 1.094922e-02 3.122808e-01 -3.120259e-01
2.052000e+00 1.997787e-04 3.956184e-14 -4.183839e-05 1.997787e-04 1.090474e-02 1.502895e-02 -1.482917e-02
2.056000e+00 1.436695e-04 -7.857201e-14 -2.665198e-05 1.436695e-04 1.085733e-02 -1.688314e-01 1.689751e-01
2.060000e+00 1.027516e-04 -3.237453e-14 2.526168e-05 1.027516e-04 1.082348e-02 -2.839410e-01 2.840438e-01
2.064000e+00 6.575324e-05 9.791647e-14 4.275105e-05 6.575324e-05 1.079223e-02 3.702956e-01 -3.702298e-01
2.068000e+00 3.207826e-05 1.296653e-13 -3.059865e-06 3.207826e-05 1.076309e-02 1.988478e-01 -1.988157e-01
2.072000e+00 1.605340e-05 -1.046145e-14 -4.418214e-05 1.605340e-05 1.075074e-02 -2.686667e-02 2.688273e-02
2.076000e+00 5.106990e-06 -1.282058e-13 -2.600804e-05 5.106990e-06 1.074300e-02 -1.705880e-01 1.705931e-01
2.080000e+00 -1.736640e-06 -6.603518e-14 2.381974e-05 -1.736640e-06 1.073905e-02 -2.495110e-01 2.495093e-01
2.084000e+00 -9.607383e-06 8.162973e-14 3.956167e-05 -9.607383e-06 1.073381e-02 3.751255e-01 -3.751351e-01
2.088000e+00 -1.336656e-05 1.056152e-13 -2.031157e-06 -1.336656e-05 1.073247e-02 2.046688e-01 -2.046821e-01
2.092000e+00 -1.331188e-05 -2.861034e-14 -4.113719e-05 -1.331188e-05 1.073487e-02 -3.309277e-02 3.307946e-02
2.096000e+00 -2.292700e-05 -1.338336e-13 -2.754794e-05 -2.292700e-05 1.072742e-02 -1.751794e-01 1.751564e-01
2.100000e+00 -2.529642e-05 -8.254605e-14 2.397708e-05 -2.529642e-05 1.072699e-02 -2.880451e-01 2.880198e-01
2.104000e+00 -2.436519e-05 5.777401e-14 4.556960e-05 -2.436519e-05 1.072982e-02 3.726227e-01 -3.726471e-01
2.108000e+00 -2.481550e-05 9.887373e-14 2.201746e-06 -2.481550e-05 1.073126e-02 2.021512e-01 -2.021760e-01
2.112000e+00 -2.608098e-05 -2.211504e-14 -3.877648e-05 -2.608098e-05 1.073184e-02 -3.090259e-02 3.087651e-02
2.116000e+00 -3.158803e-05 -1.379194e-13 -1.877853e-05 -3.158803e-05 1.072804e-02 -1.732343e-01 1.732027e-01
2.120000e+00 -2.724635e-05 -8.997907e-14 3.041326e-05 -2.724635e-05 1.073405e-02 -2.864429e-01 2.864157e-01
2.124000e+00 -2.615283e-05 5.876126e-14 4.406684e-05 -2.615283e-05 1.073689e-02 3.713604e-01 -3.713865e-01
2.128000e+00 -3.046556e-05 9.804598e-14 4.272689e-06 -3.046556e-05 1.073425e-02 2.009185e-01 -2.009490e-01
2.132000e+00 -3.399945e-05 -2.785253e-14 -3.624481e-05 -3.399945e-05 1.073223e-02 -2.987428e-02 2.984028e-02
2.136000e+00 -3.346933e-05 -1.502302e-13 -2.253847e-05 -3.346933e-05 1.073420e-02 -1.722836e-01 1.722501e-01
2.140000e+00 -4.011723e-05 -1.010762e-13 2.308802e-05 -4.011723e-05 1.072886e-02 -2.856441e-01 2.856040e-01
2.144000e+00 -3.998564e-05 3.750628e-14 4.010848e-05 -3.998564e-05 1.073016e-02 3.706858e-01 -3.707258e-01
2.148000e+00 -3.979541e-05 7.983472e-14 -3.836019e-06 -3.979541e-05 1.073150e-02 2.002997e-01 -2.003395e-01
2.152000e+00 -4.543162e-05 -3.575813e-14 -4.727122e-05 -4.543162e-05 1.072689e-02 -2.940480e-02 2.935937e-02
2.156000e+00 -5.207979e-05 -1.659191e-13 -3.063347e-05 -5.207979e-05 1.072102e-02 -1.718317e-01 1.717796e-01
2.160000e+00 -6.213872e-05 -1.383405e-13 1.687485e-05 -6.213872e-05 1.071141e-02 2.705749e-01 -2.706371e-01
2.164000e+00 -6.633572e-05 -9.273681e-15 2.955039e-05 -6.633572e-05 1.070737e-02 1.159277e-01 -1.159941e-01
2.168000e+00 -6.699457e-05 3.262428e-14 -8.181167e-06 -6.699457e-05 1.070674e-02 -4.773065e-02 4.766365e-02
2.172000e+00 -7.376911e-05 -6.462958e-14 -4.622499e-05 -7.376911e-05 1.069982e-02 -2.044581e-01 2.043843e-01
2.176000e+00 -6.722373e-05 -1.894196e-13 -3.158038e-05 -6.722373e-05 1.070617e-02 2.863452e-01 -2.864124e-01
2.180000e+00 -7.055233e-05 -1.597641e-13 1.715813e-05 -7.055233e-05 1.070266e-02 1.395079e-01 -1.395784e-01
2.184000e+00 -7.490025e-05 -2.898250e-14 3.635586e-05 -7.490025e-05 1.069795e-02 3.483616e-02 -3.491106e-02
2.188000e+00 -8.061071e-05 9.990877e-15 -2.240430e-06 -8.061071e-05 1.069165e-02 -1.179003e-01 1.178197e-01
2.192000e+00 -8.380275e-05 -1.095926e-13 -4.012026e-05 -8.380275e-05 1.068766e-02 2.407320e-01 -2.408158e-01
2.196000e+00 -8.447449e-05 -2.335741e-13 -2.294936e-05 -8.447449e-05 1.068607e-02 7.515978e-02 -7.524425e-02
2.200000e+00 -9.026616e-05 -1.915929e-13 2.701830e-05 -9.026616e-05 1.067919e-02 -8.203404e-02 8.194377e-02
2.204000e+00 -9.356993e-05 -5.452011e-14 4.409414e-05 -9.356993e-05 1.067458e-02 2.147811e-01 -2.148747e-01
2.208000e+00 -9.387133e-05 -2.518270e-14 1.585730e-06 -9.387133e-05 1.067285e-02 2.912684e-02 -2.922071e-02
2.212000e+00 -9.751203e-05 -1.423393e-13 -4.028755e-05 -9.751203e-05 1.066765e-02 1.034788e-01 -1.035763e-01
2.216000e+00 -9.675097e-05 -2.601878e-13 -2.373396e-05 -9.675097e-05 1.066674e-02 -5.635356e-02 5.625681e-02
2.220000e+00 -1.084332e-04 -2.100410e-13 2.177813e-05 -1.084332e-04 1.065313e-02 -1.649474e-01 1.648390e-01
2.224000e+00 -1.090106e-04 -9.626731e-14 3.544860e-05 -1.090106e-04 1.065034e-02 2.777039e-01 -2.778129e-01
2.228000e+00 -1.124271e-04 -7.541200e-14 -4.920185e-06 -1.124271e-04 1.064457e-02 9.772640e-02 -9.783882e-02
2.232000e+00 -1.142309e-04 -1.788574e-13 -4.466432e-05 -1.142309e-04 1.064025e-02 2.889881e-02 -2.901304e-02
2.236000e+00 -1.150554e-04 -2.763049e-13 -2.714817e-05 -1.150554e-04 1.063679e-02 -1.348780e-01 1.347630e-01
2.240000e+00 -1.148859e-04 -2.340071e-13 2.324532e-05 -1.148859e-04 1.063424e-02 -2.449062e-01 2.447913e-01
2.244000e+00 -1.195623e-04 -1.052150e-13 4.106329e-05 -1.195623e-04 1.062669e-02 3.494876e-01 -3.496072e-01
2.248000e+00 -1.203671e-04 -8.937555e-14 -9.255402e-07 -1.203671e-04 1.062284e-02 1.783674e-01 -1.784877e-01
2.252000e+00 -1.216784e-04 -2.045139e-13 -4.278186e-05 -1.216784e-04 1.061837e-02 -9.512500e-03 9.390821e-03
2.256000e+00 -1.233397e-04 -3.077801e-13 -2.809563e-05 -1.233397e-04 1.061342e-02 -1.549761e-01 1.548528e-01
2.260000e+00 -1.260063e-04 -2.677477e-13 2.129077e-05 -1.260063e-04 1.060731e-02 -2.719305e-01 2.718045e-01
2.264000e+00 -1.231073e-04 -1.467567e-13 4.003729e-05 -1.231073e-04 1.060669e-02 3.600692e-01 -3.601923e-01
2.268000e+00 -1.166485e-04 -1.120532e-13 6.871183e-07 -1.166485e-04 1.060972e-02 1.895508e-01 -1.896675e-01
2.272000e+00 -1.117179e-04 -1.905376e-13 -3.743551e-05 -1.117179e-04 1.061135e-02 -1.992288e-02 1.981116e-02
2.276000e+00 -9.913903e-05 -2.675862e-13 -2.488515e-05 -9.913903e-05 1.062087e-02 -1.636414e-01 1.635422e-01
2.280000e+00 -9.052340e-05 -2.077316e-13 2.138418e-05 -9.052340e-05 1.062674e-02 -2.785994e-01 2.785088e-01
2.284000e+00 -8.896035e-05 -7.799038e-14 4.011331e-05 -8.896035e-05 1.062568e-02 3.650730e-01 -3.651620e-01
2.288000e+00 -7.700320e-05 -6.422037e-14 2.358325e-06 -7.700320e-05 1.063520e-02 1.948608e-01 -1.949378e-01
2.292000e+00 -6.272410e-05 -1.433274e-13 -3.429351e-05 -6.272410e-05 1.064746e-02 -2.481351e-02 2.475078e-02
2.296000e+00 -4.843260e-05 -1.674886e-13 -1.991425e-05 -4.843260e-05 1.066020e-02 -1.676869e-01 1.676384e-01
2.300000e+00 -3.975832e-05 -6.703540e-14 2.600234e-05 -3.975832e-05 1.066770e-02 -2.729991e-01 2.729594e-01
2.304000e+00 -2.423047e-05 3.705861e-14 4.266890e-05 -2.423047e-05 1.068246e-02 3.682415e-01 -3.682658e-01
2.308000e+00 -1.569370e-05 4.920634e-14 6.590823e-06 -1.569370e-05 1.069064e-02 1.982074e-01 -1.982231e-01
2.312000e+00 -1.591285e-05 -2.743192e-14 -3.655702e-05 -1.591285e-05 1.069020e-02 -2.786057e-02 2.784465e-02
2.316000e+00 -9.867409e-06 -1.005931e-13 -2.306851e-05 -9.867409e-06 1.069612e-02 -1.701847e-01 1.701749e-01
2.320000e+00 4.534066e-07 -3.992604e-14 2.243285e-05 4.534065e-07 1.070660e-02 -2.836083e-01 2.836088e-01
2.324000e+00 7.721862e-06 1.004923e-13 4.101166e-05 7.721862e-06 1.071434e-02 3.689561e-01 -3.689483e-01
2.328000e+00 1.879853e-05 1.483667e-13 2.215736e-06 1.879853e-05 1.072622e-02 1.989559e-01 -1.989371e-01
2.332000e+00 1.827724e-05 6.863461e-14 -4.123427e-05 1.827724e-05 1.072670e-02 -2.849736e-02 2.851564e-02
2.336000e+00 2.116264e-05 -4.372271e-14 -2.649884e-05 2.116264e-05 1.073064e-02 -1.706968e-01 1.707180e-01
2.340000e+00 2.351146e-05 -1.459225e-14 2.170903e-05 2.351146e-05 1.073415e-02 -2.065984e-01 2.066219e-01
2.344000e+00 2.268864e-05 1.180607e-13 4.053334e-05 2.268864e-05 1.073453e-02 3.765751e-01 -3.765524e-01
2.348000e+00 2.444406e-05 1.694229e-13 1.652826e-06 2.444406e-05 1.073752e-02 2.070934e-01 -2.070690e-01
2.352000e+00 2.214496e-05 7.284227e-14 -4.114191e-05 2.214496e-05 1.073646e-02 -2.007696e-02 2.009910e-02
2.356000e+00 2.109081e-05 -5.056746e-14 -2.627449e-05 2.109081e-05 1.073660e-02 9.685658e-02 -9.683549e-02
2.360000e+00 1.619028e-05 -2.828280e-14 1.790892e-05 1.619028e-05 1.073280e-02 -1.173273e-02 1.174892e-02
2.364000e+00 1.891655e-05 7.751775e-14 3.709402e-05 1.891655e-05 1.073660e-02 1.970536e-01 -1.970347e-01
2.368000e+00 1.596678e-05 1.430889e-13 -4.972633e-06 1.596678e-05 1.073473e-02 2.658287e-02 -2.656690e-02
2.372000e+00 1.862980e-05 5.006129e-14 -4.348763e-05 1.862980e-05 1.073848e-02 1.241643e-01 -1.241456e-01
2.376000e+00 1.669968e-05 -5.325911e-14 -3.080897e-05 1.669968e-05 1.073766e-02 -3.711765e-02 3.713435e-02
2.380000e+00 1.336182e-05 -4.051815e-14 1.840248e-05 1.336182e-05 1.073535e-02 -1.778541e-01 1.778674e-01
2.384000e+00 8.767154e-06 5.641744e-14 3.995765e-05 8.767154e-06 1.073165e-02 2.896704e-01 -2.896616e-01
2.388000e+00 6.263458e-06 9.427565e-14 1.613218e-06 6.263458e-06 1.072992e-02 1.165378e-01 -1.165315e-01
2.392000e+00 2.987853e-06 1.151939e-14 -3.669750e-05 2.987853e-06 1.072732e-02 4.675490e-02 -4.675191e-02
2.396000e+00 5.356366e-06 -8.417814e-14 -2.403737e-05 5.356366e-06 1.073035e-02 -1.065607e-01 1.065661e-01
2.400000e+00 1.213383e-06 -4.726781e-14 2.636857e-05 1.213382e-06 1.072684e-02 -2.340550e-01 2.340563e-01
2.404000e+00 -2.549637e-06 5.168053e-14 4.378709e-05 -2.549637e-06 1.072357e-02 3.322223e-01 -3.322249e-01
2.408000e+00 -4.294029e-06 6.430449e-14 4.312221e-06 -4.294029e-06 1.072222e-02 1.600090e-01 -1.600133e-01
2.412000e+00 -7.811083e-06 -3.108888e-14 -3.284339e-05 -7.811083e-06 1.071900e-02 7.616594e-03 -7.624405e-03
2.416000e+00 -1.058200e-05 -1.081113e-13 -2.086632e-05 -1.058200e-05 1.071641e-02 -1.402737e-01 1.402631e-01
2.420000e+00 -1.434016e-05 -6.964436e-14 2.237046e-05 -1.434016e-05 1.071271e-02 -2.605616e-01 2.605473e-01
2.424000e+00 -1.692709e-05 1.427269e-14 4.379193e-05 -1.692709e-05 1.071006e-02 3.519750e-01 -3.519920e-01
2.428000e+00 -1.340949e-05 3.342024e-14 5.633034e-06 -1.340949e-05 1.071352e-02 1.806752e-01 -1.806886e-01
2.432000e+00 -1.108783e-05 -2.263122e-14 -3.509736e-05 -1.108783e-05 1.071588e-02 2.184049e-03 -2.195137e-03
2.436000e+00 -1.573701e-05 -6.821506e-14 -2.325275e-05 -1.573701e-05 1.071122e-02 -1.553064e-01 1.552907e-01
2.440000e+00 -2.503753e-05 -6.097380e-14 2.392373e-05 -2.503753e-05 1.070165e-02 -2.626984e-01 2.626733e-01
2.444000e+00 -2.459604e-05 -4.394634e-14 4.182570e-05 -2.459604e-05 1.070165e-02 3.613062e-01 -3.613308e-01
2.448000e+00 -1.782806e-05 -2.424535e-14 2.110395e-06 -1.782806e-05 1.070809e-02 1.905729e-01 -1.905907e-01
2.452000e+00 -1.633477e-05 -3.949587e-15 -3.747190e-05 -1.633477e-05 1.070939e-02 1.461512e-02 -1.463145e-02
2.456000e+00 -2.026687e-05 -9.846891e-15 -2.823665e-05 -2.026687e-05 1.070521e-02 1.259909e-01 -1.260112e-01
2.460000e+00 -1.725124e-05 -5.758321e-14 2.011482e-05 -1.725124e-05 1.070795e-02 6.838207e-03 -6.855458e-03
2.464000e+00 -1.678677e-05 -6.063664e-14 4.113672e-05 -1.678677e-05 1.070819e-02 1.738787e-01 -1.738955e-01
2.468000e+00 -1.222102e-05 -1.432960e-14 5.896849e-06 -1.222102e-05 1.071261e-02 5.185637e-03 -5.197858e-03
2.472000e+00 -1.753271e-05 3.751577e-14 -3.702674e-05 -1.753271e-05 1.070713e-02 -2.196519e-01 2.196344e-01
2.476000e+00 -1.972029e-05 -7.784632e-15 -2.504691e-05 -1.972029e-05 1.070463e-02 2.315396e-01 -2.315593e-01
2.480000e+00 -1.389149e-05 -8.559448e-14 1.930200e-05 -1.389149e-05 1.071020e-02 8.623750e-02 -8.625139e-02
2.484000e+00 -4.230135e-06 -6.641895e-14 4.150555e-05 -4.230135e-06 1.071987e-02 8.379648e-02 -8.380072e-02
2.488000e+00 -9.413197e-06 6.387298e-14 2.488196e-06 -9.413197e-06 1.071477e-02 -7.585427e-02 7.584486e-02
2.492000e+00 -1.274977e-05 8.266059e-14 -4.109221e-05 -1.274977e-05 1.071136e-02 2.073393e-01 -2.073520e-01
2.496000e+00 -1.161881e-05 -4.376914e-14 -2.585235e-05 -1.161881e-05 1.071237e-02 4.319271e-02 -4.320433e-02
2.500000e+00 -3.673797e-06 -1.227566e-13 2.086508e-05 -3.673797e-06 1.072035e-02 -1.096935e-01 1.096899e-01
2.504000e+00 -5.404716e-06 -1.789180e-14 4.158527e-05 -5.404716e-06 1.071876e-02 2.369553e-01 -2.369607e-01
2.508000e+00 -3.997717e-06 1.123519e-13 2.450122e-06 -3.997717e-06 1.072030e-02 6.403639e-02 -6.404039e-02
2.512000e+00 -6.841413e-06 9.356720e-14 -4.233810e-05 -6.841413e-06 1.071756e-02 9.253292e-02 -9.253976e-02
2.516000e+00 -8.922825e-06 -6.538878e-14 -3.129950e-05 -8.922825e-06 1.071549e-02 -6.550971e-02 6.550079e-02
2.520000e+00 -1.229199e-05 -1.512837e-13 1.787581e-05 -1.229199e-05 1.071203e-02 -2.013091e-01 2.012968e-01
2.524000e+00 -1.543798e-05 -6.193732e-14 3.882999e-05 -1.543798e-05 1.070867e-02 3.078844e-01 -3.078999e-01
2.528000e+00 -1.299242e-05 6.942969e-14 1.774994e-06 -1.299242e-05 1.071088e-02 1.344046e-01 -1.344175e-01
2.532000e+00 -1.346318e-05 7.308500e-14 -4.147787e-05 -1.346318e-05 1.071020e-02 3.093723e-02 -3.095070e-02
2.536000e+00 -1.474447e-05 -6.576717e-14 -2.872500e-05 -1.474447e-05 1.070867e-02 -1.200720e-01 1.200572e-01
2.540000e+00 -9.939807e-06 -1.608750e-13 2.066917e-05 -9.939808e-06 1.071328e-02 -2.449476e-01 2.449376e-01
2.544000e+00 -1.034618e-05 -6.387817e-14 4.033841e-05 -1.034618e-05 1.071275e-02 3.406743e-01 -3.406847e-01
2.548000e+00 -5.810608e-06 7.976626e-14 -4.735590e-07 -5.810608e-06 1.071723e-02 1.682718e-01 -1.682776e-01
2.552000e+00 -2.902820e-06 8.363149e-14 -3.867350e-05 -2.902820e-06 1.072021e-02 2.125647e-04 -2.154675e-04
2.556000e+00 -3.169805e-06 -4.551346e-14 -2.502363e-05 -3.169805e-06 1.072006e-02 -1.463855e-01 1.463823e-01
2.560000e+00 -7.483161e-06 -1.373160e-13 1.916572e-05 -7.483161e-06 1.071578e-02 -2.655142e-01 2.655067e-01
2.564000e+00 -4.881843e-06 -9.422106e-14 4.207045e-05 -4.881843e-06 1.071838e-02 3.559431e-01 -3.559480e-01
2.568000e+00 -3.223779e-06 5.118130e-14 4.719996e-06 -3.223779e-06 1.072011e-02 1.843498e-01 -1.843530e-01
2.572000e+00 -6.280110e-07 9.753698e-14 -3.479156e-05 -6.280109e-07 1.072285e-02 -1.465660e-02 1.465598e-02
2.576000e+00 -9.139083e-07 -6.571789e-15 -2.516659e-05 -9.139083e-07 1.072275e-02 -1.589068e-01 1.589059e-01
2.580000e+00 8.940125e-07 -1.242009e-13 2.156209e-05 8.940124e-07 1.072477e-02 -2.751762e-01 2.751770e-01
2.584000e+00 4.720600e-06 -8.375533e-14 4.185221e-05 4.720600e-06 1.072891e-02 3.630829e-01 -3.630782e-01
2.588000e+00 1.369612e-05 7.762404e-14 5.137370e-06 1.369612e-05 1.073843e-02 1.919524e-01 -1.919387e-01
2.592000e+00 9.785158e-06 1.696731e-13 -3.572341e-05 9.785158e-06 1.073516e-02 -2.173018e-02 2.173996e-02
2.596000e+00 4.727465e-06 3.998468e-14 -2.610869e-05 4.727465e-06 1.073059e-02 -1.648142e-01 1.648189e-01
2.600000e+00 3.252431e-06 -1.466200e-13 1.784646e-05 3.252431e-06 1.072949e-02 -2.797072e-01 2.797105e-01
2.604000e+00 3.703380e-06 -1.351229e-13 3.985181e-05 3.703380e-06 1.073030e-02 3.664075e-01 -3.664038e-01
2.608000e+00 5.708114e-06 6.945859e-14 3.922568e-06 5.708114e-06 1.073271e-02 1.955034e-01 -1.954977e-01
2.612000e+00 7.476221e-08 1.898694e-13 -3.773024e-05 7.476240e-08 1.072742e-02 -2.508159e-02 2.508166e-02
2.616000e+00 -3.005097e-06 3.456523e-14 -2.639067e-05 -3.005097e-06 1.072453e-02 -1.675938e-01 1.675908e-01
2.620000e+00 -5.728519e-06 -1.833736e-13 2.027752e-05 -5.728520e-06 1.072189e-02 -2.818276e-01 2.818219e-01
2.624000e+00 -9.306632e-06 -1.721205e-13 4.083557e-05 -9.306632e-06 1.071828e-02 3.679337e-01 -3.679430e-01
2.628000e+00 -7.931494e-06 4.342916e-14 3.959788e-06 -7.931494e-06 1.071958e-02 1.971429e-01 -1.971508e-01
2.632000e+00 -1.023351e-05 1.732523e-13 -3.590347e-05 -1.023351e-05 1.071718e-02 -2.664622e-02 2.663599e-02
2.636000e+00 -3.901621e-06 3.008254e-14 -2.320610e-05 -3.901621e-06 1.072348e-02 -1.688785e-01 1.688746e-01
2.640000e+00 -1.007851e-05 -1.541382e-13 2.396217e-05 -1.007851e-05 1.071727e-02 -2.828047e-01 2.827946e-01
2.644000e+00 -1.508010e-05 -1.612374e-13 4.620223e-05 -1.508010e-05 1.071203e-02 3.686327e-01 -3.686478e-01
2.648000e+00 -2.050703e-05 1.255753e-14 7.884854e-06 -2.050703e-05 1.070617e-02 1.978846e-01 -1.979051e-01
2.652000e+00 -1.681219e-05 1.081114e-13 -3.525163e-05 -1.681219e-05 1.070939e-02 -2.735823e-02 2.734142e-02
2.656000e+00 -1.592763e-05 1.925985e-14 -2.600942e-05 -1.592763e-05 1.070987e-02 -1.694722e-01 1.694563e-01
2.660000e+00 -1.733306e-05 -1.307567e-13 2.190438e-05 -1.733306e-05 1.070804e-02 -2.832490e-01 2.832316e-01
2.664000e+00 -1.839321e-05 -1.407647e-13 4.268566e-05 -1.839321e-05 1.070650e-02 3.689433e-01 -3.689617e-01
2.668000e+00 -1.779467e-05 3.939495e-15 4.779556e-06 -1.779467e-05 1.070660e-02 1.982173e-01 -1.982351e-01
2.672000e+00 -1.474943e-05 1.074505e-13 -3.870534e-05 -1.474943e-05 1.070920e-02 -2.765587e-02 2.764112e-02
2.676000e+00 -1.748027e-05 4.120570e-14 -2.787430e-05 -1.748027e-05 1.070602e-02 -1.697228e-01 1.697053e-01
2.680000e+00 -2.264838e-05 -1.155998e-13 1.847621e-05 -2.264838e-05 1.070025e-02 -2.834417e-01 2.834191e-01
2.684000e+00 -2.549112e-05 -1.687976e-13 4.164541e-05 -2.549112e-05 1.069665e-02 3.690703e-01 -3.690958e-01
2.688000e+00 -3.431853e-05 -4.381945e-14 5.267828e-06 -3.431853e-05 1.068684e-02 1.983339e-01 -1.983682e-01
2.692000e+00 -3.960413e-05 5.041705e-14 -3.524153e-05 -3.960413e-05 1.068030e-02 1.059201e-02 -1.063161e-02
2.696000e+00 -3.532830e-05 -2.405191e-14 -2.440135e-05 -3.532830e-05 1.068328e-02 1.163847e-01 -1.164200e-01
2.700000e+00 -3.174983e-05 -1.387834e-13 2.362270e-05 -3.174983e-05 1.068568e-02 -2.547686e-02 2.544511e-02
2.704000e+00 -4.730600e-05 -1.277588e-13 4.483030e-05 -4.730600e-05 1.066871e-02 1.804001e-01 -1.804474e-01
2.708000e+00 -7.400879e-05 -7.617657e-14 5.541005e-06 -7.400879e-05 1.063981e-02 1.088424e-02 -1.095825e-02
2.712000e+00 -8.579352e-05 -1.560971e-13 -3.899654e-05 -8.579352e-05 1.062510e-02 1.339259e-01 -1.340117e-01
2.716000e+00 -8.393961e-05 -2.759120e-13 -2.615017e-05 -8.393961e-05 1.062380e-02 -2.253589e-02 2.245195e-02
2.720000e+00 -8.299221e-05 -2.440376e-13 2.240637e-05 -8.299221e-05 1.062159e-02 -1.656100e-01 1.655270e-01
2.724000e+00 -7.050301e-05 -1.084052e-13 4.405452e-05 -7.050301e-05 1.063111e-02 2.804924e-01 -2.805629e-01
2.728000e+00 -4.796329e-05 -6.374750e-16 6.682465e-06 -4.796329e-05 1.065126e-02 1.066101e-01 -1.066581e-01
2.732000e+00 -2.595488e-05 1.111621e-14 -3.592717e-05 -2.595488e-05 1.067164e-02 5.543349e-02 -5.545944e-02
2.736000e+00 -2.268615e-05 -2.114028e-14 -2.491178e-05 -2.268615e-05 1.067371e-02 -9.822339e-02 9.820071e-02
2.740000e+00 -2.461632e-05 -6.530994e-14 2.044371e-05 -2.461632e-05 1.067059e-02 -2.275885e-01 2.275639e-01
2.744000e+00 -1.816276e-05 -7.725199e-14 4.035424e-05 -1.816276e-05 1.067592e-02 3.277635e-01 -3.277817e-01
2.748000e+00 -2.423694e-06 -6.029953e-15 4.378390e-06 -2.423694e-06 1.069092e-02 1.545472e-01 -1.545496e-01
2.752000e+00 1.678561e-05 1.098949e-13 -3.535867e-05 1.678561e-05 1.071001e-02 1.527001e-02 -1.525322e-02
2.756000e+00 2.491934e-05 1.761216e-13 -2.763348e-05 2.491934e-05 1.071852e-02 -1.316858e-01 1.317107e-01
2.760000e+00 3.961090e-05 1.077071e-13 1.841936e-05 3.961090e-05 1.073401e-02 -2.543864e-01 2.544261e-01
2.764000e+00 4.879503e-05 5.244686e-14 3.804199e-05 4.879503e-05 1.074444e-02 3.481913e-01 -3.481425e-01
2.768000e+00 5.394290e-05 1.083243e-13 -5.087549e-07 5.394290e-05 1.075112e-02 1.754112e-01 -1.753572e-01
2.772000e+00 5.468354e-05 2.015698e-13 -4.013859e-05 5.468354e-05 1.075353e-02 -1.131129e-02 1.136598e-02
2.776000e+00 5.058029e-05 2.014977e-13 -2.914374e-05 5.058029e-05 1.075107e-02 -1.471900e-01 1.472406e-01
2.780000e+00 4.881858e-05 8.772243e-14 1.867654e-05 4.881858e-05 1.075088e-02 -2.669039e-01 2.669527e-01
2.784000e+00 5.119423e-05 1.285732e-14 4.242159e-05 5.119423e-05 1.075487e-02 3.577941e-01 -3.577429e-01
2.788000e+00 5.373971e-05 9.780445e-14 3.106496e-06 5.373971e-05 1.075915e-02 1.850795e-01 -1.850258e-01
2.792000e+00 5.517117e-05 2.231459e-13 -4.079437e-05 5.517117e-05 1.076242e-02 -1.443783e-02 1.449300e-02
2.796000e+00 5.080110e-05 2.164337e-13 -2.881443e-05 5.080110e-05 1.075987e-02 -1.589909e-01 1.590417e-01
2.800000e+00 4.816326e-05 6.685801e-14 2.020260e-05 4.816326e-05 1.075896e-02 -2.758332e-01 2.758814e-01
2.804000e+00 4.940925e-05 -3.075471e-14 4.237078e-05 4.940925e-05 1.076194e-02 3.642322e-01 -3.641827e-01
2.808000e+00 5.015838e-05 6.742404e-14 5.535045e-06 5.015838e-05 1.076449e-02 1.921079e-01 -1.920578e-01
2.812000e+00 4.806064e-05 2.254308e-13 -3.712111e-05 4.806064e-05 1.076420e-02 -2.116557e-02 2.121363e-02
2.816000e+00 4.472819e-05 2.163521e-13 -2.708099e-05 4.472819e-05 1.076261e-02 -1.644913e-01 1.645360e-01
2.820000e+00 3.459867e-05 4.075702e-14 1.891523e-05 3.459867e-05 1.075401e-02 -2.799436e-01 2.799782e-01
2.824000e+00 1.643172e-05 -1.042295e-13 4.253573e-05 1.643172e-05 1.073689e-02 3.671090e-01 -3.670926e-01
2.828000e+00 -2.089707e-05 -7.787077e-14 6.387521e-06 -2.089707e-05 1.069963e-02 1.952868e-01 -1.953077e-01
2.832000e+00 -3.414717e-05 -5.670320e-14 -3.788499e-05 -3.414717e-05 1.068554e-02 -2.441065e-02 2.437650e-02
2.836000e+00 -8.364259e-06 -7.973341e-14 -2.889641e-05 -8.364259e-06 1.071069e-02 -1.670923e-01 1.670839e-01
2.840000e+00 -3.010067e-05 1.434991e-14 1.742456e-05 -3.010067e-05 1.068838e-02 -2.818645e-01 2.818344e-01
2.844000e+00 -1.431687e-04 -3.765658e-14 3.616097e-05 -1.431687e-04 1.057231e-02 3.682279e-01 -3.683711e-01
2.848000e+00 -2.709528e-04 -6.254743e-13 6.922268e-08 -2.709528e-04 1.043715e-02 1.965351e-01 -1.968061e-01
2.852000e+00 -3.291997e-04 -1.342569e-12 -4.193361e-05 -3.291997e-04 1.036806e-02 -2.622536e-02 2.589616e-02
2.856000e+00 -1.517359e-04 -1.283324e-12 -2.453777e-05 -1.517359e-04 1.053663e-02 -1.684106e-01 1.682589e-01
2.860000e+00 1.216567e-04 3.197403e-13 2.526938e-05 1.216567e-04 1.080906e-02 -2.825258e-01 2.826474e-01
2.864000e+00 2.426865e-04 2.189569e-12 4.538687e-05 2.426865e-04 1.093619e-02 3.691706e-01 -3.689280e-01
2.868000e+00 2.520626e-04 1.906792e-12 5.825730e-06 2.520626e-04 1.095412e-02 1.976835e-01 -1.974314e-01
2.872000e+00 2.564260e-04 -2.571050e-13 -4.016492e-05 2.564260e-04 1.096744e-02 -2.620623e-02 2.646266e-02
2.876000e+00 3.078486e-04 -1.302941e-12 -3.052843e-05 3.078486e-04 1.102898e-02 -1.684731e-01 1.687810e-01
2.880000e+00 3.247484e-04 4.384265e-13 1.850818e-05 3.247484e-04 1.105740e-02 -2.827335e-01 2.830582e-01
2.884000e+00 2.911572e-04 2.561816e-12 3.892868e-05 2.911572e-04 1.103523e-02 3.695002e-01 -3.692090e-01
2.888000e+00 2.222003e-04 1.963841e-12 -3.442671e-08 2.222003e-04 1.097605e-02 1.980158e-01 -1.977936e-01
2.892000e+00 1.586672e-04 -7.821614e-13 -4.271698e-05 1.586672e-04 1.092008e-02 -2.669063e-02 2.684930e-02
2.896000e+00 1.045817e-04 -2.061678e-12 -2.821027e-05 1.045817e-04 1.087157e-02 -1.689645e-01 1.690691e-01
2.900000e+00 6.133917e-05 -2.496969e-13 2.230458e-05 6.133917e-05 1.083224e-02 -2.831500e-01 2.832113e-01
2.904000e+00 2.796747e-05 2.029158e-12 3.981506e-05 2.796748e-05 1.080146e-02 3.692776e-01 -3.692496e-01
2.908000e+00 -4.806137e-06 1.537626e-12 6.130621e-06 -4.806136e-06 1.077012e-02 1.979274e-01 -1.979322e-01
2.912000e+00 -2.535086e-05 -1.132122e-12 -3.479183e-05 -2.535087e-05 1.075006e-02 -2.707179e-02 2.704644e-02
2.916000e+00 -2.517151e-05 -2.334014e-12 -2.172763e-05 -2.517151e-05 1.075035e-02 -1.692190e-01 1.691938e-01
2.920000e+00 -3.069921e-05 -3.772541e-13 2.549636e-05 -3.069921e-05 1.074482e-02 -2.832878e-01 2.832571e-01
2.924000e+00 -3.714567e-05 2.005424e-12 4.519914e-05 -3.714567e-05 1.073814e-02 3.692031e-01 -3.692403e-01
2.928000e+00 -4.009144e-05 1.503684e-12 7.652121e-06 -4.009144e-05 1.073477e-02 1.979394e-01 -1.979795e-01
2.932000e+00 -4.034678e-05 -1.194033e-12 -3.581684e-05 -4.034679e-05 1.073401e-02 -2.716410e-02 2.712375e-02
2.936000e+00 -4.474203e-05 -2.362700e-12 -2.742257e-05 -4.474203e-05 1.072900e-02 -1.692910e-01 1.692462e-01
2.940000e+00 -4.095965e-05 -4.080562e-13 2.258915e-05 -4.095965e-05 1.073213e-02 -2.833092e-01 2.832683e-01
2.944000e+00 -4.404334e-05 1.996032e-12 4.279173e-05 -4.404334e-05 1.072838e-02 3.691773e-01 -3.692213e-01
2.948000e+00 -4.392613e-05 1.514614e-12 6.004694e-06 -4.392612e-05 1.072775e-02 1.979574e-01 -1.980013e-01
2.952000e+00 -4.254877e-05 -1.180309e-12 -3.475072e-05 -4.254877e-05 1.072838e-02 -1.235393e-03 1.192844e-03
2.956000e+00 -4.516111e-05 -2.360098e-12 -2.777102e-05 -4.516112e-05 1.072497e-02 -1.672209e-01 1.671757e-01
2.960000e+00 -4.322418e-05 -4.103332e-13 1.857161e-05 -4.322418e-05 1.072607e-02 -2.817127e-01 2.816695e-01
2.964000e+00 -4.930522e-05 1.983396e-12 3.830775e-05 -4.930522e-05 1.071905e-02 3.679558e-01 -3.680051e-01
2.968000e+00 -5.136013e-05 1.483248e-12 6.686133e-07 -5.136013e-05 1.071588e-02 1.966761e-01 -1.967275e-01
2.972000e+00 -5.213392e-05 -1.228344e-12 -4.373871e-05 -5.213392e-05 1.071391e-02 1.095399e-02 -1.100612e-02
2.976000e+00 -5.799474e-05 -2.408521e-12 -3.131245e-05 -5.799474e-05 1.070670e-02 1.176195e-01 -1.176775e-01
2.980000e+00 -5.611077e-05 -4.411521e-13 2.145210e-05 -5.611077e-05 1.070713e-02 -4.811217e-02 4.805606e-02
2.984000e+00 -5.741971e-05 1.977034e-12 4.283838e-05 -5.741971e-05 1.070434e-02 1.779206e-01 -1.779780e-01
2.988000e+00 -6.076993e-05 1.494324e-12 4.545176e-06 -6.076993e-05 1.069939e-02 8.322142e-03 -8.382912e-03
2.992000e+00 -6.599930e-05 -1.239516e-12 -3.891903e-05 -6.599930e-05 1.069237e-02 1.215426e-01 -1.216086e-01
2.996000e+00 -6.358787e-05 -2.465160e-12 -2.834311e-05 -6.358788e-05 1.069290e-02 -1.803706e-02 1.797348e-02
3.000000e+00 -5.952128e-05 -4.667710e-13 2.103440e-05 -5.952128e-05 1.069516e-02 -1.620802e-01 1.620207e-01
3.004000e+00 -6.062015e-05 2.007988e-12 4.477861e-05 -6.062015e-05 1.069227e-02 2.782350e-01 -2.782956e-01
3.008000e+00 -6.031549e-05 1.531063e-12 8.435488e-06 -6.031548e-05 1.069073e-02 1.035736e-01 -1.036339e-01
3.012000e+00 -5.832437e-05 -1.236972e-12 -3.326521e-05 -5.832437e-05 1.069088e-02 5.848816e-02 -5.854648e-02
3.016000e+00 -6.327237e-05 -2.462104e-12 -2.372700e-05 -6.327237e-05 1.068400e-02 -9.551210e-02 9.544883e-02
3.020000e+00 -7.018036e-05 -4.802974e-13 2.089235e-05 -7.018036e-05 1.067491e-02 -2.257663e-01 2.256961e-01
3.024000e+00 -6.787306e-05 1.937964e-12 4.167090e-05 -6.787306e-05 1.067491e-02 3.266988e-01 -3.267667e-01
3.028000e+00 -7.031969e-05 1.471647e-12 3.980825e-06 -7.031969e-05 1.067011e-02 1.527225e-01 -1.527928e-01
3.032000e+00 -7.160522e-05 -1.254097e-12 -3.866914e-05 -7.160522e-05 1.066636e-02 4.313065e-02 -4.320226e-02
3.036000e+00 -7.530738e-05 -2.479422e-12 -3.071471e-05 -7.530738e-05 1.066006e-02 -1.302616e-01 1.301863e-01
3.040000e+00 -7.647488e-05 -5.269908e-13 1.771577e-05 -7.647488e-05 1.065616e-02 -2.533450e-01 2.532685e-01
3.044000e+00 -7.702441e-05 1.908222e-12 3.972657e-05 -7.702441e-05 1.065280e-02 3.472347e-01 -3.473118e-01
3.048000e+00 -7.879332e-05 1.463989e-12 2.237336e-06 -7.879332e-05 1.064813e-02 1.741632e-01 -1.742420e-01
3.052000e+00 -8.649368e-05 -1.255468e-12 -3.941196e-05 -8.649368e-05 1.063731e-02 -1.624534e-01 1.623669e-01
3.056000e+00 -8.677903e-05 -2.520325e-12 -2.733729e-05 -8.677904e-05 1.063371e-02 8.666349e-02 -8.675027e-02
3.060000e+00 -8.483863e-05 -5.685263e-13 2.335893e-05 -8.483863e-05 1.063231e-02 -7.044386e-02 7.035902e-02
3.064000e+00 -9.107713e-05 1.910736e-12 4.210727e-05 -9.107713e-05 1.062260e-02 2.056547e-01 -2.057458e-01
3.068000e+00 -9.043008e-05 1.456203e-12 3.170864e-06 -9.043008e-05 1.061962e-02 3.327551e-02 -3.336594e-02
3.072000e+00 -8.852076e-05 -1.295603e-12 -4.111274e-05 -8.852076e-05 1.061789e-02 1.185488e-01 -1.186373e-01
3.076000e+00 -9.040636e-05 -2.542392e-12 -3.538074e-05 -9.040636e-05 1.061231e-02 -4.081442e-02 4.072402e-02
3.080000e+00 -8.919288e-05 -5.807255e-13 1.367363e-05 -8.919288e-05 1.060976e-02 -1.812891e-01 1.811999e-01
3.084000e+00 -8.598196e-05 1.889809e-12 3.746345e-05 -8.598196e-05 1.060923e-02 2.930750e-01 -2.931610e-01
3.088000e+00 -7.691577e-05 1.474015e-12 1.826581e-06 -7.691577e-05 1.061472e-02 1.182722e-01 -1.183491e-01
3.092000e+00 -7.053564e-05 -1.216948e-12 -3.902634e-05 -7.053564e-05 1.061775e-02 4.567708e-02 -4.574762e-02
3.096000e+00 -6.656418e-05 -2.446935e-12 -3.265285e-05 -6.656419e-05 1.061851e-02 -1.069640e-01 1.068974e-01
3.100000e+00 -6.239549e-05 -5.112068e-13 1.714896e-05 -6.239549e-05 1.061957e-02 -2.350054e-01 2.349430e-01
3.104000e+00 -5.611314e-05 1.937117e-12 4.409559e-05 -5.611313e-05 1.062289e-02 3.337200e-01 -3.337761e-01
3.108000e+00 -4.921935e-05 1.545639e-12 7.538423e-06 -4.921935e-05 1.062702e-02 1.598871e-01 -1.599363e-01
3.112000e+00 -4.210390e-05 -1.128305e-12 -3.575379e-05 -4.210390e-05 1.063159e-02 8.389988e-03 -8.432092e-03
3.116000e+00 -3.606532e-05 -2.367730e-12 -2.675643e-05 -3.606532e-05 1.063529e-02 -1.393665e-01 1.393304e-01
3.120000e+00 -3.106060e-05 -4.422028e-13 2.316021e-05 -3.106060e-05 1.063813e-02 -2.604883e-01 2.604572e-01
3.124000e+00 -1.624974e-05 2.002344e-12 4.576035e-05 -1.624974e-05 1.065111e-02 3.527054e-01 -3.527217e-01
3.128000e+00 -6.193386e-07 1.647151e-12 9.851572e-06 -6.193370e-07 1.066544e-02 1.798682e-01 -1.798688e-01
3.132000e+00 6.763874e-06 -9.687951e-13 -3.459961e-05 6.763873e-06 1.067193e-02 -9.912045e-03 9.918808e-03
3.136000e+00 1.359962e-05 -2.221354e-12 -2.800466e-05 1.359962e-05 1.067813e-02 -1.549083e-01 1.549219e-01
3.140000e+00 2.704554e-05 -3.593043e-13 1.896681e-05 2.704554e-05 1.069131e-02 -2.724933e-01 2.725203e-01
3.144000e+00 4.009298e-05 2.099324e-12 4.366958e-05 4.009299e-05 1.070458e-02 3.616322e-01 -3.615921e-01
3.148000e+00 5.346599e-05 1.807055e-12 7.736780e-06 5.346600e-05 1.071867e-02 1.894201e-01 -1.893667e-01
3.152000e+00 5.939372e-05 -7.930402e-13 -3.766329e-05 5.939371e-05 1.072569e-02 1.594107e-02 -1.588168e-02
3.156000e+00 7.485165e-05 -2.095801e-12 -2.625789e-05 7.485165e-05 1.074266e-02 -1.596679e-01 1.597428e-01
3.160000e+00 8.183585e-05 -2.267265e-13 1.984634e-05 8.183585e-05 1.075160e-02 -2.760954e-01 2.761772e-01
3.164000e+00 8.432958e-05 2.241859e-12 4.449846e-05 8.432958e-05 1.075627e-02 3.642754e-01 -3.641911e-01
3.168000e+00 9.286325e-05 1.915277e-12 9.250260e-06 9.286325e-05 1.076723e-02 1.923699e-01 -1.922771e-01
3.172000e+00 9.896901e-05 -7.234623e-13 -3.788422e-05 9.896901e-05 1.077608e-02 2.931765e-03 -2.832796e-03
3.176000e+00 9.955401e-05 -2.020539e-12 -2.977589e-05 9.955401e-05 1.077959e-02 1.200398e-01 -1.199402e-01
3.180000e+00 9.603848e-05 -1.869875e-13 1.653916e-05 9.603848e-05 1.077901e-02 -3.919303e-02 3.928907e-02
3.184000e+00 9.622107e-05 2.219403e-12 4.026997e-05 9.622108e-05 1.078213e-02 1.795316e-01 -1.794354e-01
3.188000e+00 1.017804e-04 1.882631e-12 5.285686e-06 1.017804e-04 1.079079e-02 9.933363e-03 -9.831582e-03
3.192000e+00 9.975308e-05 -7.109059e-13 -4.024514e-05 9.975308e-05 1.079199e-02 1.136702e-01 -1.135704e-01
3.196000e+00 1.000539e-04 -2.003032e-12 -3.543444e-05 1.000539e-04 1.079555e-02 -1.868258e-02 1.878264e-02
3.200000e+00 9.621447e-05 -2.127230e-13 1.100544e-05 9.621447e-05 1.079497e-02 -1.625405e-01 1.626367e-01
3.204000e+00 9.127095e-05 2.161034e-12 3.632549e-05 9.127095e-05 1.079319e-02 2.788307e-01 -2.787394e-01
3.208000e+00 9.116805e-05 1.822836e-12 5.162164e-06 9.116805e-05 1.079622e-02 1.042424e-01 -1.041513e-01
3.212000e+00 8.964710e-05 -7.558003e-13 -3.820708e-05 8.964710e-05 1.079786e-02 2.618033e-02 -2.609068e-02
3.216000e+00 8.755364e-05 -2.023268e-12 -2.945460e-05 8.755364e-05 1.079892e-02 -8.906965e-02 8.915721e-02
3.220000e+00 8.684491e-05 -2.318942e-13 1.874365e-05 8.684491e-05 1.080137e-02 -2.213093e-01 2.213961e-01
3.224000e+00 8.506494e-05 2.143265e-12 4.432015e-05 8.506494e-05 1.080276e-02 3.242294e-01 -3.241443e-01
3.228000e+00 8.698877e-05 1.819280e-12 9.004340e-06 8.698877e-05 1.080791e-02 1.493732e-01 -1.492862e-01
3.232000e+00 7.433026e-05 -7.489567e-13 -3.929130e-05 7.433026e-05 1.079834e-02 1.873342e-02 -1.865909e-02
3.236000e+00 6.371815e-05 -2.074703e-12 -2.874125e-05 6.371814e-05 1.079045e-02 -1.308658e-01 1.309295e-01
3.240000e+00 6.657252e-05 -3.439973e-13 2.043672e-05 6.657252e-05 1.079593e-02 -2.542469e-01 2.543135e-01
3.244000e+00 6.778179e-05 2.081559e-12 4.693102e-05 6.778180e-05 1.079988e-02 3.485984e-01 -3.485306e-01
3.248000e+00 6.082164e-05 1.858301e-12 8.939764e-06 6.082164e-05 1.079560e-02 1.750172e-01 -1.749564e-01
3.252000e+00 5.916562e-05 -7.491621e-13 -3.378206e-05 5.916562e-05 1.079651e-02 3.140487e-02 -3.134571e-02
3.256000e+00 5.214734e-05 -2.138043e-12 -2.545583e-05 5.214733e-05 1.079194e-02 -1.474626e-01 1.475148e-01
3.260000e+00 5.800513e-05 -4.270909e-13 2.255273e-05 5.800513e-05 1.080026e-02 -2.461753e-01 2.462333e-01
3.264000e+00 5.166624e-05 2.051249e-12 4.565858e-05 5.166624e-05 1.079641e-02 3.591504e-01 -3.590988e-01
3.268000e+00 4.245165e-05 1.838854e-12 8.780479e-06 4.245165e-05 1.078944e-02 1.862047e-01 -1.861623e-01
3.272000e+00 3.674477e-05 -8.066606e-13 -3.842390e-05 3.674476e-05 1.078574e-02 -5.987225e-03 6.023970e-03
3.276000e+00 3.688318e-05 -2.248711e-12 -3.170470e-05 3.688318e-05 1.078781e-02 -1.563314e-01 1.563683e-01
3.280000e+00 4.340836e-05 -4.862027e-13 1.953611e-05 4.340836e-05 1.079641e-02 -2.742701e-01 2.743135e-01
3.284000e+00 4.184888e-05 2.082734e-12 4.543153e-05 4.184888e-05 1.079704e-02 3.633473e-01 -3.633055e-01
3.288000e+00 4.074149e-05 1.903443e-12 9.837828e-06 4.074150e-05 1.079810e-02 1.906084e-01 -1.905677e-01
3.292000e+00 4.006836e-05 -7.772037e-13 -3.656531e-05 4.006836e-05 1.079959e-02 1.784766e-02 -1.780759e-02
3.296000e+00 3.443409e-05 -2.259109e-12 -3.135349e-05 3.443409e-05 1.079603e-02 1.260513e-01 -1.260169e-01
3.300000e+00 3.260925e-05 -5.233506e-13 1.261226e-05 3.260924e-05 1.079617e-02 -6.582573e-02 6.585834e-02
3.304000e+00 2.965953e-05 2.028157e-12 3.868852e-05 2.965954e-05 1.079512e-02 1.677498e-01 -1.677201e-01
3.308000e+00 2.754008e-05 1.871680e-12 7.284608e-06 2.754008e-05 1.079483e-02 -2.172978e-03 2.200518e-03
3.312000e+00 2.647114e-05 -7.813045e-13 -3.584356e-05 2.647114e-05 1.079555e-02 -3.141086e-01 3.141350e-01
3.316000e+00 3.095286e-05 -2.268038e-12 -2.660482e-05 3.095286e-05 1.080190e-02 2.079824e-01 -2.079515e-01
3.320000e+00 2.976754e-05 -5.048141e-13 2.226531e-05 2.976754e-05 1.080266e-02 4.464305e-02 -4.461328e-02
3.324000e+00 2.724923e-05 2.065066e-12 4.369603e-05 2.724923e-05 1.080204e-02 1.090211e-01 -1.089939e-01
3.328000e+00 3.513685e-05 1.884336e-12 1.094122e-05 3.513685e-05 1.081194e-02 -5.495712e-02 5.499225e-02
3.332000e+00 3.570343e-05 -7.552815e-13 -3.904287e-05 3.570343e-05 1.081469e-02 1.342324e-01 -1.341967e-01
3.336000e+00 2.988127e-05 -2.230319e-12 -3.576807e-05 2.988127e-05 1.081098e-02 3.932085e-02 -3.929097e-02
3.340000e+00 2.435275e-05 -5.319289e-13 1.408025e-05 2.435275e-05 1.080738e-02 -1.162917e-01 1.163160e-01
3.344000e+00 2.239102e-05 1.981625e-12 4.082158e-05 2.239102e-05 1.080723e-02 2.448992e-01 -2.448768e-01
3.348000e+00 2.799902e-05 1.840434e-12 6.146239e-06 2.799903e-05 1.081473e-02 6.843848e-02 -6.841049e-02
3.352000e+00 2.815776e-05 -7.375940e-13 -3.816781e-05 2.815776e-05 1.081690e-02 9.170330e-02 -9.167514e-02
3.356000e+00 2.039499e-05 -2.198290e-12 -3.486755e-05 2.039499e-05 1.081103e-02 -6.794596e-02 6.796635e-02
3.360000e+00 2.220358e-05 -5.614750e-13 1.969903e-05 2.220358e-05 1.081464e-02 -2.052314e-01 2.052536e-01
3.364000e+00 2.279616e-05 1.940623e-12 4.304622e-05 2.279616e-05 1.081709e-02 3.126880e-01 -3.126652e-01
3.368000e+00 2.227247e-05 1.838150e-12 4.465495e-06 2.227248e-05 1.081844e-02 1.367357e-01 -1.367134e-01
3.372000e+00 2.916134e-05 -7.413299e-13 -3.847094e-05 2.916134e-05 1.082733e-02 -3.027998e-02 3.030914e-02
3.376000e+00 2.517119e-05 -2.203379e-12 -3.382679e-05 2.517119e-05 1.082541e-02 -1.069315e-01 1.069567e-01
3.380000e+00 2.904679e-05 -5.731988e-13 1.341496e-05 2.904679e-05 1.083137e-02 -2.378936e-01 2.379227e-01
3.384000e+00 2.748354e-05 1.913186e-12 4.102101e-05 2.748354e-05 1.083195e-02 3.379997e-01 -3.379722e-01
3.388000e+00 2.293128e-05 1.817053e-12 7.866872e-06 2.293128e-05 1.082945e-02 1.618171e-01 -1.617942e-01
3.392000e+00 3.033260e-05 -7.464150e-13 -3.486834e-05 3.033260e-05 1.083897e-02 9.366749e-03 -9.336416e-03
3.396000e+00 2.842915e-05 -2.192713e-12 -2.918969e-05 2.842915e-05 1.083930e-02 -1.408157e-01 1.408441e-01
3.400000e+00 2.355804e-05 -5.445000e-13 1.728239e-05 2.355804e-05 1.083656e-02 -2.633385e-01 2.633621e-01
3.404000e+00 1.823306e-05 1.900807e-12 3.991610e-05 1.823306e-05 1.083320e-02 3.561441e-01 -3.561259e-01
3.408000e+00 1.991989e-05 1.750037e-12 6.514720e-06 1.991990e-05 1.083680e-02 1.817932e-01 -1.817733e-01
3.412000e+00 2.353090e-05 -7.735331e-13 -3.954010e-05 2.353090e-05 1.084243e-02 2.795697e-02 -2.793344e-02
3.416000e+00 2.533972e-05 -2.174219e-12 -3.127027e-05 2.533972e-05 1.084637e-02 -1.527132e-01 1.527386e-01
3.420000e+00 2.267896e-05 -5.062484e-13 1.636397e-05 2.267896e-05 1.084584e-02 -2.719841e-01 2.720068e-01
3.424000e+00 2.179696e-05 1.914353e-12 4.428865e-05 2.179696e-05 1.084704e-02 3.620841e-01 -3.620623e-01
3.428000e+00 2.159920e-05 1.756044e-12 1.070105e-05 2.159920e-05 1.084892e-02 1.887034e-01 -1.886818e-01
3.432000e+00 1.902805e-05 -7.641200e-13 -3.562966e-05 1.902805e-05 1.084839e-02 -6.762220e-04 6.952500e-04
3.436000e+00 1.294931e-05 -2.178738e-12 -3.090043e-05 1.294931e-05 1.084421e-02 -1.580336e-01 1.580466e-01
3.440000e+00 1.259541e-05 -5.565828e-13 1.725105e-05 1.259541e-05 1.084565e-02 -2.759912e-01 2.760038e-01
3.444000e+00 1.404387e-05 1.871104e-12 4.412229e-05 1.404387e-05 1.084892e-02 3.649006e-01 -3.648866e-01
3.448000e+00 1.911740e-05 1.767802e-12 1.415187e-05 1.911740e-05 1.085594e-02 1.918873e-01 -1.918682e-01
3.452000e+00 2.139806e-05 -6.970351e-13 -3.413447e-05 2.139805e-05 1.086031e-02 -2.011226e-02 2.013366e-02
3.456000e+00 1.806518e-05 -2.123148e-12 -3.057362e-05 1.806518e-05 1.085906e-02 -1.643342e-01 1.643523e-01
3.460000e+00 1.677252e-05 -5.545197e-13 1.827067e-05 1.677252e-05 1.085978e-02 -2.803729e-01 2.803897e-01
3.464000e+00 1.433617e-05 1.849835e-12 4.476728e-05 1.433618e-05 1.085930e-02 3.678303e-01 -3.678159e-01
3.468000e+00 1.155240e-05 1.767080e-12 9.952427e-06 1.155240e-05 1.085839e-02 1.954731e-01 -1.954615e-01
3.472000e+00 1.471506e-05 -7.006397e-13 -3.743935e-05 1.471506e-05 1.086344e-02 -2.402445e-02 2.403917e-02
3.476000e+00 1.421101e-05 -2.127724e-12 -3.408253e-05 1.421101e-05 1.086488e-02 -1.671284e-01 1.671426e-01
3.480000e+00 1.447237e-05 -5.518831e-13 1.259336e-05 1.447237e-05 1.086709e-02 -2.822030e-01 2.822175e-01
3.484000e+00 1.509898e-05 1.847778e-12 4.053002e-05 1.509898e-05 1.086969e-02 3.689620e-01 -3.689469e-01
3.488000e+00 1.569343e-05 1.762827e-12 8.521417e-06 1.569343e-05 1.087229e-02 1.970335e-01 -1.970178e-01
3.492000e+00 1.402864e-05 -6.943461e-13 -4.101423e-05 1.402863e-05 1.087262e-02 1.905258e-02 -1.903855e-02
3.496000e+00 1.587074e-05 -2.146403e-12 -3.047605e-05 1.587074e-05 1.087647e-02 1.186211e-01 -1.186052e-01
3.500000e+00 1.574205e-05 -5.659176e-13 1.657341e-05 1.574205e-05 1.087839e-02 -4.000104e-02 4.001678e-02
3.504000e+00 1.395849e-05 1.846200e-12 4.226486e-05 1.395849e-05 1.087863e-02 1.799221e-01 -1.799082e-01
3.508000e+00 1.261098e-05 1.748934e-12 8.789461e-06 1.261098e-05 1.087926e-02 1.046494e-02 -1.045232e-02
3.512000e+00 1.149026e-05 -7.314344e-13 -3.949149e-05 1.149026e-05 1.088008e-02 7.918901e-02 -7.917752e-02
3.516000e+00 7.561636e-06 -2.182611e-12 -3.608613e-05 7.561634e-06 1.087801e-02 -1.332375e-02 1.333131e-02
3.520000e+00 3.009778e-06 -6.208820e-13 1.656693e-05 3.009777e-06 1.087517e-02 -1.581928e-01 1.581958e-01
3.524000e+00 5.591963e-07 1.785458e-12 4.341051e-05 5.591980e-07 1.087431e-02 2.755120e-01 -2.755115e-01
3.528000e+00 6.309162e-06 1.708610e-12 1.514891e-05 6.309164e-06 1.088171e-02 1.008426e-01 -1.008363e-01
3.532000e+00 1.521401e-05 -7.044089e-13 -2.941642e-05 1.521401e-05 1.089253e-02 6.084910e-02 -6.083389e-02
3.536000e+00 8.581558e-06 -2.087286e-12 -2.885433e-05 8.581556e-06 1.088786e-02 -9.316937e-02 9.317795e-02
3.540000e+00 4.640163e-06 -5.745050e-13 1.908612e-05 4.640162e-06 1.088570e-02 -2.238640e-01 2.238686e-01
3.544000e+00 1.777711e-06 1.743764e-12 4.756136e-05 1.777713e-06 1.088450e-02 3.254854e-01 -3.254837e-01
3.548000e+00 -9.868032e-07 1.664441e-12 1.285632e-05 -9.868015e-07 1.088330e-02 1.515349e-01 -1.515359e-01
3.552000e+00 -1.093325e-05 -7.146692e-13 -3.276172e-05 -1.093325e-05 1.087469e-02 3.214957e-02 -3.216050e-02
3.556000e+00 -1.810839e-05 -2.144904e-12 -2.808928e-05 -1.810839e-05 1.086854e-02 -1.290442e-01 1.290261e-01
3.560000e+00 -2.134835e-05 -6.653227e-13 1.882516e-05 -2.134835e-05 1.086613e-02 -2.524625e-01 2.524412e-01
3.564000e+00 -3.153424e-05 1.675842e-12 4.386079e-05 -3.153424e-05 1.085652e-02 3.468160e-01 -3.468475e-01
3.568000e+00 -3.417467e-05 1.602941e-12 9.598388e-06 -3.417467e-05 1.085421e-02 1.737300e-01 -1.737641e-01
3.572000e+00 -3.335125e-05 -7.825551e-13 -3.762815e-05 -3.335125e-05 1.085531e-02 4.484899e-03 -4.518250e-03
3.576000e+00 -5.661379e-05 -2.180166e-12 -3.185146e-05 -5.661379e-05 1.083190e-02 1.416764e-01 -1.417330e-01
3.580000e+00 -7.714325e-05 -7.645114e-13 1.712593e-05 -7.714325e-05 1.081041e-02 -1.835066e-02 1.827351e-02
3.584000e+00 -9.049256e-05 1.446254e-12 4.168418e-05 -9.049256e-05 1.079545e-02 1.616697e-01 -1.617602e-01
3.588000e+00 -8.838720e-05 1.362475e-12 7.848997e-06 -8.838720e-05 1.079569e-02 -6.300973e-03 6.212586e-03
3.592000e+00 -7.175148e-05 -8.720564e-13 -3.681188e-05 -7.175148e-05 1.081074e-02 -1.520986e-01 1.520268e-01
3.596000e+00 -5.607482e-05 -2.093590e-12 -2.992487e-05 -5.607482e-05 1.082536e-02 2.588178e-01 -2.588739e-01
3.600000e+00 -3.325841e-05 -5.658804e-13 1.469741e-05 -3.325841e-05 1.084777e-02 2.601032e-02 -2.604358e-02
3.604000e+00 -1.566732e-05 1.672980e-12 4.055877e-05 -1.566732e-05 1.086565e-02 4.257020e-02 -4.258587e-02
3.608000e+00 -1.190407e-05 1.580802e-12 7.254261e-06 -1.190407e-05 1.087007e-02 -1.106998e-01 1.106879e-01
3.612000e+00 -1.255855e-05 -7.261711e-13 -3.941809e-05 -1.255855e-05 1.087012e-02 -5.105844e-01 5.105719e-01
3.616000e+00 -4.959108e-06 -2.073173e-12 -3.500847e-05 -4.959110e-06 1.087854e-02 2.381663e-01 -2.381712e-01
3.620000e+00 5.060588e-06 -5.616618e-13 1.482985e-05 5.060588e-06 1.088969e-02 7.646861e-02 -7.646355e-02
3.624000e+00 1.440156e-05 1.760087e-12 4.277071e-05 1.440156e-05 1.090051e-02 7.982061e-02 -7.980621e-02
3.628000e+00 2.421437e-05 1.717665e-12 1.003994e-05 2.421437e-05 1.091215e-02 -7.955948e-02 7.958369e-02
3.632000e+00 3.692021e-05 -5.979919e-13 -3.621814e-05 3.692021e-05 1.092710e-02 2.102179e-01 -2.101810e-01
3.636000e+00 4.084927e-05 -1.948637e-12 -3.530963e-05 4.084926e-05 1.093359e-02 4.866635e-02 -4.862550e-02
3.640000e+00 4.107870e-05 -4.785841e-13 1.120370e-05 4.107870e-05 1.093648e-02 -1.043780e-01 1.044191e-01
3.644000e+00 3.649052e-05 1.770272e-12 3.861810e-05 3.649052e-05 1.093450e-02 2.332979e-01 -2.332615e-01
3.648000e+00 4.017445e-05 1.671045e-12 9.000929e-06 4.017445e-05 1.094080e-02 5.971091e-02 -5.967074e-02
3.652000e+00 4.119884e-05 -6.173638e-13 -3.538184e-05 4.119884e-05 1.094455e-02 9.615659e-02 -9.611539e-02
3.656000e+00 4.187737e-05 -1.938590e-12 -3.099110e-05 4.187736e-05 1.094801e-02 -6.095115e-02 6.099303e-02
3.660000e+00 4.884292e-05 -4.674382e-13 1.463399e-05 4.884292e-05 1.095792e-02 -1.976859e-01 1.977347e-01
3.664000e+00 4.565199e-05 1.791485e-12 4.144406e-05 4.565199e-05 1.095777e-02 3.058313e-01 -3.057856e-01
3.668000e+00 3.726874e-05 1.697073e-12 8.353757e-06 3.726874e-05 1.095225e-02 1.314126e-01 -1.313753e-01
3.672000e+00 3.221001e-05 -6.557943e-13 -3.798514e-05 3.221001e-05 1.094984e-02 5.553882e-02 -5.550661e-02
3.676000e+00 2.726951e-05 -2.028773e-12 -3.369944e-05 2.726950e-05 1.094739e-02 -1.129453e-01 1.129726e-01
3.680000e+00 2.040132e-05 -5.422969e-13 1.175549e-05 2.040132e-05 1.094282e-02 -2.396438e-01 2.396642e-01
3.684000e+00 1.437879e-05 1.720102e-12 3.843795e-05 1.437880e-05 1.093888e-02 3.373213e-01 -3.373069e-01
3.688000e+00 1.128867e-05 1.621489e-12 9.242773e-06 1.128867e-05 1.093772e-02 1.639084e-01 -1.638971e-01
3.692000e+00 -5.954053e-06 -7.020253e-13 -3.686890e-05 -5.954054e-06 1.092205e-02 1.405617e-02 -1.406213e-02
3.696000e+00 -5.976501e-05 -2.116537e-12 -3.433474e-05 -5.976501e-05 1.086854e-02 -1.390263e-01 1.389665e-01
3.700000e+00 -1.056177e-04 -8.836248e-13 1.483719e-05 -1.056177e-04 1.082118e-02 -2.603065e-01 2.602009e-01
3.704000e+00 -9.392613e-05 1.165056e-12 4.287266e-05 -9.392613e-05 1.083070e-02 3.524995e-01 -3.525934e-01
3.708000e+00 -8.845002e-05 1.313008e-12 9.600915e-06 -8.845002e-05 1.083425e-02 1.798369e-01 -1.799254e-01
3.712000e+00 -1.722708e-04 -6.459575e-13 -4.083720e-05 -1.722708e-04 1.074704e-02 -8.638359e-03 8.466089e-03
3.716000e+00 -2.959582e-04 -2.410895e-12 -3.891049e-05 -2.959582e-04 1.061616e-02 -1.518079e-01 1.515119e-01
3.720000e+00 -3.841593e-04 -2.001712e-12 9.677919e-06 -3.841593e-04 1.051682e-02 -2.704211e-01 2.700370e-01
3.724000e+00 -2.922315e-04 -2.142686e-13 4.426244e-05 -2.922315e-04 1.059746e-02 3.595942e-01 -3.598864e-01
3.728000e+00 5.806913e-06 1.038551e-12 1.735781e-05 5.806914e-06 1.089099e-02 1.876216e-01 -1.876157e-01
3.732000e+00 2.355825e-04 1.263327e-12 -2.854956e-05 2.355825e-04 1.112563e-02 -1.715929e-02 1.739487e-02
3.736000e+00 2.857721e-04 7.841082e-13 -2.784595e-05 2.857721e-04 1.118578e-02 -1.607882e-01 1.610740e-01
3.740000e+00 2.653919e-04 1.811573e-13 1.587149e-05 2.653919e-04 1.117606e-02 -2.769788e-01 2.772442e-01
3.744000e+00 2.973403e-04 1.352713e-13 4.312991e-05 2.973403e-04 1.121905e-02 3.654003e-01 -3.651030e-01
3.748000e+00 3.188137e-04 8.972283e-13 1.344298e-05 3.188137e-04 1.125270e-02 1.936945e-01 -1.933757e-01
3.752000e+00 2.788928e-04 1.475051e-12 -3.460524e-05 2.788928e-04 1.122482e-02 -2.586599e-02 2.614489e-02
3.756000e+00 2.033434e-04 8.570961e-13 -3.439561e-05 2.033434e-04 1.115943e-02 -1.619776e-01 1.621809e-01
3.760000e+00 1.353554e-04 -3.766514e-13 1.125822e-05 1.353554e-04 1.109918e-02 -2.780533e-01 2.781887e-01
3.764000e+00 8.449107e-05 -7.308183e-13 4.301697e-05 8.449107e-05 1.105403e-02 3.659292e-01 -3.658447e-01
3.768000e+00 3.625525e-05 1.563827e-13 1.472143e-05 3.625525e-05 1.100980e-02 1.941524e-01 -1.941162e-01
3.772000e+00 -1.585849e-06 9.153848e-13 -3.141536e-05 -1.585848e-06 1.097446e-02 2.366053e-02 -2.366211e-02
3.776000e+00 -3.234793e-05 3.931283e-13 -2.935199e-05 -3.234793e-05 1.094498e-02 1.255818e-01 -1.256141e-01
3.780000e+00 -5.453997e-05 -7.695441e-13 1.411185e-05 -5.453997e-05 1.092311e-02 -3.333865e-02 3.328411e-02
3.784000e+00 -6.888936e-05 -1.037610e-12 4.478814e-05 -6.888936e-05 1.090840e-02 1.740720e-01 -1.741409e-01
3.788000e+00 -6.975616e-05 -7.865595e-14 1.777145e-05 -6.975616e-05 1.090686e-02 5.387911e-03 -5.457667e-03
3.792000e+00 -6.871316e-05 7.968531e-13 -3.085251e-05 -6.871316e-05 1.090719e-02 -1.292056e-01 1.291369e-01
3.796000e+00 -7.152398e-05 3.754245e-13 -3.325831e-05 -7.152398e-05 1.090359e-02 2.543506e-01 -2.544221e-01
3.800000e+00 -7.595165e-05 -7.825708e-13 1.074366e-05 -7.595165e-05 1.089820e-02 9.489917e-02 -9.497512e-02
3.804000e+00 -8.026540e-05 -1.104949e-12 3.939973e-05 -8.026540e-05 1.089272e-02 6.111833e-02 -6.119860e-02
3.808000e+00 -7.701088e-05 -1.680938e-13 1.193952e-05 -7.701088e-05 1.089474e-02 -9.356076e-02 9.348375e-02
3.812000e+00 -7.074717e-05 7.485910e-13 -3.293963e-05 -7.074717e-05 1.089989e-02 -3.654444e-01 3.653736e-01
3.816000e+00 -7.581845e-05 4.059820e-13 -3.409862e-05 -7.581845e-05 1.089368e-02 2.646395e-01 -2.647153e-01
3.820000e+00 -7.626483e-05 -7.611575e-13 1.472522e-05 -7.626483e-05 1.089195e-02 1.070566e-01 -1.071329e-01
3.824000e+00 -7.404444e-05 -1.127872e-12 4.473794e-05 -7.404444e-05 1.089287e-02 4.983957e-02 -4.991361e-02
3.828000e+00 -7.196360e-05 -1.783427e-13 1.613193e-05 -7.196360e-05 1.089368e-02 -1.034163e-01 1.033443e-01
3.832000e+00 -7.590347e-05 7.879240e-13 -3.154442e-05 -7.590347e-05 1.088839e-02 -2.289919e-01 2.289160e-01
3.836000e+00 -7.828353e-05 4.202688e-13 -2.773692e-05 -7.828353e-05 1.088450e-02 3.165622e-01 -3.166405e-01
3.840000e+00 -7.907810e-05 -7.586468e-13 1.614039e-05 -7.907811e-05 1.088209e-02 1.643609e-01 -1.644399e-01
3.844000e+00 -7.907856e-05 -1.122821e-12 4.405742e-05 -7.907856e-05 1.088041e-02 -5.301319e-03 5.222240e-03
3.848000e+00 -7.785059e-05 -1.625379e-13 1.570987e-05 -7.785059e-05 1.087993e-02 -1.486883e-01 1.486105e-01
3.852000e+00 -7.562542e-05 8.042696e-13 -3.236696e-05 -7.562542e-05 1.088046e-02 1.449133e-01 -1.449889e-01
3.856000e+00 -7.650605e-05 4.473187e-13 -3.318184e-05 -7.650605e-05 1.087786e-02 1.225320e-01 -1.226085e-01
3.860000e+00 -7.824167e-05 -7.493423e-13 1.265536e-05 -7.824167e-05 1.087431e-02 -3.719657e-02 3.711832e-02
3.864000e+00 -7.836491e-05 -1.142281e-12 4.169027e-05 -7.836492e-05 1.087229e-02 1.785979e-01 -1.786763e-01
3.868000e+00 -8.018364e-05 -1.852506e-13 7.732935e-06 -8.018364e-05 1.086849e-02 8.259935e-03 -8.340119e-03
3.872000e+00 -7.948194e-05 7.750167e-13 -3.652439e-05 -7.948194e-05 1.086714e-02 -1.391513e-01 1.390718e-01
3.876000e+00 -7.738121e-05 4.188651e-13 -3.182448e-05 -7.738121e-05 1.086719e-02 2.563370e-01 -2.564143e-01
3.880000e+00 -7.818323e-05 -7.528534e-13 1.192848e-05 -7.818323e-05 1.086431e-02 9.766884e-02 -9.774702e-02
3.884000e+00 -8.108988e-05 -1.147289e-12 4.256195e-05 -8.108989e-05 1.085921e-02 5.916039e-02 -5.924148e-02
3.888000e+00 -7.959127e-05 -2.281514e-13 1.092427e-05 -7.959127e-05 1.085844e-02 -9.620163e-02 9.612204e-02
3.892000e+00 -7.866467e-05 7.342292e-13 -4.004719e-05 -7.866467e-05 1.085709e-02 -2.349990e-01 2.349204e-01
3.896000e+00 -8.154414e-05 4.024952e-13 -3.700810e-05 -8.154414e-05 1.085185e-02 3.129846e-01 -3.130661e-01
3.900000e+00 -9.012700e-05 -7.786530e-13 8.153330e-06 -9.012700e-05 1.084065e-02 1.598162e-01 -1.599064e-01
3.904000e+00 -8.607421e-05 -1.225403e-12 3.937075e-05 -8.607421e-05 1.084195e-02 -5.261979e-04 4.401237e-04
3.908000e+00 -8.409398e-05 -2.855125e-13 1.024629e-05 -8.409398e-05 1.084123e-02 -1.453476e-01 1.452635e-01
3.912000e+00 -8.426246e-05 7.442383e-13 -3.800360e-05 -8.426246e-05 1.083834e-02 2.597862e-01 -2.598705e-01
3.916000e+00 -8.294824e-05 4.321605e-13 -3.348659e-05 -8.294824e-05 1.083690e-02 1.028584e-01 -1.029414e-01
3.920000e+00 -9.291669e-05 -7.666234e-13 7.450449e-06 -9.291669e-05 1.082397e-02 -5.361950e-02 5.352659e-02
3.924000e+00 -9.653516e-05 -1.260610e-12 3.650897e-05 -9.653516e-05 1.081709e-02 1.909851e-01 -1.910816e-01
3.928000e+00 -9.259955e-05 -3.591273e-13 9.204251e-06 -9.259955e-05 1.081771e-02 2.110174e-02 -2.119434e-02
3.932000e+00 -9.737980e-05 7.196915e-13 -3.767357e-05 -9.737980e-05 1.080954e-02 1.578759e-01 -1.579733e-01
3.936000e+00 -1.000461e-04 4.512873e-13 -3.442736e-05 -1.000461e-04 1.080329e-02 -2.274206e-02 2.264201e-02
3.940000e+00 -1.009068e-04 -7.864355e-13 1.178833e-05 -1.009068e-04 1.079872e-02 -1.647773e-01 1.646764e-01
3.944000e+00 -1.064387e-04 -1.278713e-12 4.036966e-05 -1.064387e-04 1.078930e-02 2.796323e-01 -2.797388e-01
3.948000e+00 -1.035879e-04 -3.660835e-13 1.344997e-05 -1.035879e-04 1.078815e-02 1.064543e-01 -1.065579e-01
3.952000e+00 -9.521233e-05 7.253181e-13 -3.575954e-05 -9.521233e-05 1.079266e-02 6.538572e-02 -6.548093e-02
3.956000e+00 -9.900527e-05 5.172903e-13 -3.730864e-05 -9.900527e-05 1.078502e-02 -9.237099e-02 9.227199e-02
3.960000e+00 -1.011405e-04 -7.265994e-13 6.745447e-06 -1.011405e-04 1.077887e-02 -2.224140e-01 2.223128e-01
3.964000e+00 -9.426819e-05 -1.295335e-12 3.810783e-05 -9.426819e-05 1.078175e-02 3.237030e-01 -3.237973e-01
3.968000e+00 -8.544564e-05 -3.657958e-13 1.213054e-05 -8.544564e-05 1.078680e-02 1.509925e-01 -1.510779e-01
3.972000e+00 -7.891107e-05 8.093891e-13 -3.369184e-05 -7.891107e-05 1.078978e-02 1.540412e-02 -1.548303e-02
3.976000e+00 -7.454018e-05 6.249429e-13 -3.144822e-05 -7.454018e-05 1.079074e-02 -1.277069e-01 1.276323e-01
3.980000e+00 -6.857664e-05 -6.433694e-13 1.414763e-05 -6.857664e-05 1.079343e-02 -2.507288e-01 2.506602e-01
3.984000e+00 -6.791605e-05 -1.228251e-12 4.462342e-05 -6.791605e-05 1.079089e-02 3.450399e-01 -3.451078e-01
3.988000e+00 -5.827751e-05 -3.217580e-13 1.530304e-05 -5.827751e-05 1.079747e-02 1.730777e-01 -1.731360e-01
3.992000e+00 -4.028424e-05 8.673039e-13 -3.238885e-05 -4.028424e-05 1.081286e-02 -1.184258e-02 1.180230e-02
3.996000e+00 -2.677445e-05 7.657143e-13 -3.116112e-05 -2.677445e-05 1.082430e-02 -1.448120e-01 1.447852e-01
4.000000e+00 -1.976190e-05 -4.465980e-13 1.442926e-05 -1.976190e-05 1.082959e-02 -2.642750e-01 2.642552e-01
4.004000e+00 -5.663524e-06 -1.085234e-12 4.440515e-05 -5.663525e-06 1.084233e-02 3.552791e-01 -3.552848e-01
4.008000e+00 1.423429e-05 -2.146019e-13 1.876880e-05 1.423429e-05 1.086147e-02 1.837739e-01 -1.837596e-01
4.012000e+00 2.813292e-05 1.047546e-12 -3.179627e-05 2.813292e-05 1.087522e-02 -2.731521e-02 2.734335e-02
4.016000e+00 3.817834e-05 9.925980e-13 -3.454818e-05 3.817834e-05 1.088556e-02 -1.527035e-01 1.527416e-01
4.020000e+00 4.561964e-05 -2.651539e-13 1.048850e-05 4.561964e-05 1.089363e-02 -2.705410e-01 2.705866e-01
4.024000e+00 5.585788e-05 -9.651949e-13 4.165392e-05 5.585788e-05 1.090484e-02 3.601088e-01 -3.600529e-01
4.028000e+00 6.389608e-05 -9.994079e-14 1.434300e-05 6.389608e-05 1.091421e-02 1.887784e-01 -1.887145e-01
4.032000e+00 6.987468e-05 1.163458e-12 -3.450316e-05 6.987468e-05 1.092181e-02 1.961902e-02 -1.954915e-02
4.036000e+00 7.385274e-05 1.088464e-12 -3.083436e-05 7.385275e-05 1.092763e-02 1.281282e-01 -1.280543e-01
4.040000e+00 7.641825e-05 -1.957753e-13 1.665219e-05 7.641825e-05 1.093220e-02 -2.977215e-02 2.984857e-02
4.044000e+00 7.708827e-05 -9.059862e-13 4.437611e-05 7.708827e-05 1.093498e-02 1.706757e-01 -1.705986e-01
4.048000e+00 8.228451e-05 -6.021024e-14 1.639851e-05 8.228451e-05 1.094244e-02 3.311464e-03 -3.229179e-03
4.052000e+00 8.515674e-05 1.210886e-12 -3.443311e-05 8.515675e-05 1.094777e-02 -1.210151e-01 1.211002e-01
4.056000e+00 8.533053e-05 1.152491e-12 -3.501689e-05 8.533053e-05 1.095051e-02 2.547050e-01 -2.546197e-01
4.060000e+00 8.322479e-05 -1.511397e-13 9.510624e-06 8.322479e-05 1.095099e-02 9.724250e-02 -9.715928e-02
4.064000e+00 8.019857e-05 -9.167364e-13 3.856158e-05 8.019857e-05 1.095051e-02 5.805555e-02 -5.797535e-02
4.068000e+00 8.242406e-05 -1.033941e-13 1.049676e-05 8.242406e-05 1.095532e-02 -9.490902e-02 9.499145e-02
4.072000e+00 8.773387e-05 1.178017e-12 -3.839085e-05 8.773388e-05 1.096340e-02 6.339645e-02 -6.330872e-02
4.076000e+00 8.505265e-05 1.164433e-12 -3.619299e-05 8.505266e-05 1.096359e-02 8.967548e-02 -8.959042e-02
4.080000e+00 7.655772e-05 -1.475603e-13 1.163493e-05 7.655772e-05 1.095782e-02 -6.565102e-02 6.572758e-02
4.084000e+00 7.025610e-05 -9.882126e-13 3.970639e-05 7.025610e-05 1.095403e-02 2.008238e-01 -2.007535e-01
4.088000e+00 6.997634e-05 -2.293267e-13 1.399239e-05 6.997634e-05 1.095619e-02 3.078470e-02 -3.071472e-02
4.092000e+00 7.259066e-05 1.084007e-12 -3.246801e-05 7.259066e-05 1.096133e-02 -1.026464e-01 1.027190e-01
4.096000e+00 7.365417e-05 1.135505e-12 -3.492343e-05 7.365417e-05 1.096503e-02 2.358744e-01 -2.358008e-01
4.100000e+00 7.242440e-05 -1.655807e-13 1.456773e-05 7.242440e-05 1.096648e-02 7.851792e-02 -7.844549e-02
4.104000e+00 6.173238e-05 -1.030334e-12 4.312318e-05 6.173237e-05 1.095830e-02 7.515985e-02 -7.509812e-02
4.108000e+00 5.402774e-05 -3.215898e-13 9.114568e-06 5.402774e-05 1.095282e-02 -8.052625e-02 8.058027e-02
4.112000e+00 5.473157e-05 9.372008e-13 -3.557450e-05 5.473157e-05 1.095566e-02 2.075211e-01 -2.074664e-01
4.116000e+00 5.499442e-05 1.015965e-12 -3.014041e-05 5.499442e-05 1.095811e-02 4.962568e-02 -4.957069e-02
4.120000e+00 4.747285e-05 -1.925444e-13 1.536557e-05 4.747285e-05 1.095268e-02 -1.010057e-01 1.010531e-01
4.124000e+00 4.471239e-05 -1.058259e-12 4.358148e-05 4.471239e-05 1.095186e-02 2.288417e-01 -2.287970e-01
4.128000e+00 4.259056e-05 -3.830320e-13 1.559045e-05 4.259056e-05 1.095162e-02 5.806127e-02 -5.801868e-02
4.132000e+00 3.919068e-05 9.067074e-13 -3.315705e-05 3.919068e-05 1.095003e-02 8.608252e-02 -8.604333e-02
4.136000e+00 3.778091e-05 1.013281e-12 -3.242856e-05 3.778091e-05 1.095037e-02 -5.402817e-02 5.406595e-02
4.140000e+00 3.407852e-05 -2.080487e-13 1.284064e-05 3.407852e-05 1.094835e-02 -1.904791e-01 1.905131e-01
4.144000e+00 2.646685e-05 -1.090073e-12 4.311913e-05 2.646685e-05 1.094224e-02 2.992280e-01 -2.992015e-01
4.148000e+00 2.784659e-05 -4.382473e-13 1.522793e-05 2.784659e-05 1.094503e-02 1.268640e-01 -1.268361e-01
4.152000e+00 2.552682e-05 8.677564e-13 -3.564157e-05 2.552682e-05 1.094412e-02 3.549443e-02 -3.546890e-02
4.156000e+00 2.256498e-05 1.001740e-12 -3.634870e-05 2.256498e-05 1.094249e-02 -1.135487e-01 1.135713e-01
4.160000e+00 1.756080e-05 -2.297498e-13 1.110185e-05 1.756080e-05 1.093869e-02 -2.387122e-01 2.387298e-01
4.164000e+00 1.097114e-05 -1.143632e-12 4.219681e-05 1.097114e-05 1.093311e-02 3.356124e-01 -3.356014e-01
4.168000e+00 1.348680e-05 -5.016632e-13 1.492795e-05 1.348680e-05 1.093657e-02 1.643164e-01 -1.643029e-01
4.172000e+00 1.477540e-05 8.331553e-13 -3.214991e-05 1.477540e-05 1.093888e-02 1.324073e-02 -1.322595e-02
4.176000e+00 7.924707e-06 1.028662e-12 -3.477172e-05 7.924708e-06 1.093296e-02 1.418627e-01 -1.418548e-01
4.180000e+00 1.015100e-05 -2.158214e-13 1.096957e-05 1.015100e-05 1.093604e-02 -1.537892e-02 1.538907e-02
4.184000e+00 3.548466e-06 -1.155509e-12 4.308882e-05 3.548465e-06 1.093022e-02 1.573800e-01 -1.573764e-01
4.188000e+00 2.657384e-06 -5.186259e-13 1.946790e-05 2.657384e-06 1.092998e-02 -7.566243e-03 7.568900e-03
4.192000e+00 4.869892e-06 8.399212e-13 -3.423151e-05 4.869893e-06 1.093287e-02 -3.351749e-01 3.351797e-01
4.196000e+00 4.771551e-06 1.042361e-12 -3.671446e-05 4.771553e-06 1.093349e-02 1.927884e-01 -1.927836e-01
4.200000e+00 4.164075e-06 -1.821338e-13 8.464728e-06 4.164075e-06 1.093359e-02 3.486646e-02 -3.486229e-02
4.204000e+00 5.696922e-06 -1.149844e-12 4.044275e-05 5.696921e-06 1.093585e-02 1.142722e-01 -1.142665e-01
4.208000e+00 1.208398e-05 -5.169129e-13 1.356419e-05 1.208398e-05 1.094311e-02 -4.649433e-02 4.650641e-02
4.212000e+00 8.701586e-06 8.717315e-13 -3.682902e-05 8.701587e-06 1.094066e-02 -2.480918e-01 2.481005e-01
4.216000e+00 1.463899e-06 1.065536e-12 -3.705739e-05 1.463900e-06 1.093417e-02 1.205433e-01 -1.205418e-01
4.220000e+00 4.487237e-06 -2.203302e-13 1.108855e-05 4.487237e-06 1.093787e-02 -3.724292e-02 3.724741e-02
4.224000e+00 1.160810e-05 -1.180990e-12 3.937041e-05 1.160809e-05 1.094585e-02 1.775536e-01 -1.775420e-01
4.228000e+00 1.814830e-05 -4.714847e-13 1.358133e-05 1.814830e-05 1.095350e-02 8.876985e-03 -8.858837e-03
4.232000e+00 1.612861e-05 9.554926e-13 -3.307111e-05 1.612861e-05 1.095268e-02 -1.379319e-01 1.379480e-01
4.236000e+00 1.407061e-05 1.111608e-12 -3.176481e-05 1.407062e-05 1.095176e-02 2.473486e-01 -2.473345e-01
4.240000e+00 1.652592e-05 -2.194107e-13 1.186255e-05 1.652592e-05 1.095537e-02 8.961702e-02 -8.960049e-02
4.244000e+00 1.330514e-05 -1.194431e-12 4.261109e-05 1.330514e-05 1.095330e-02 6.587427e-02 -6.586096e-02
4.248000e+00 1.203579e-05 -4.791384e-13 1.680760e-05 1.203579e-05 1.095311e-02 -8.925848e-02 8.927051e-02
4.252000e+00 1.410432e-05 9.425825e-13 -3.171790e-05 1.410432e-05 1.095628e-02 2.152654e-01 -2.152513e-01
4.256000e+00 1.685765e-05 1.113925e-12 -3.445243e-05 1.685766e-05 1.096023e-02 5.655651e-02 -5.653965e-02
4.260000e+00 1.103682e-05 -1.941788e-13 1.280460e-05 1.103682e-05 1.095556e-02 -9.572066e-02 9.573170e-02
4.264000e+00 6.128773e-06 -1.199943e-12 4.335058e-05 6.128772e-06 1.095162e-02 2.250579e-01 -2.250518e-01
4.268000e+00 1.064361e-05 -5.363212e-13 1.603717e-05 1.064361e-05 1.095710e-02 5.406481e-02 -5.405417e-02
4.272000e+00 2.052395e-05 9.103474e-13 -3.165469e-05 2.052396e-05 1.096821e-02 1.093624e-01 -1.093419e-01
4.276000e+00 1.625417e-05 1.185735e-12 -3.537687e-05 1.625417e-05 1.096528e-02 -4.841482e-02 4.843108e-02
4.280000e+00 1.007946e-05 -1.281358e-13 1.139754e-05 1.007946e-05 1.096027e-02 -1.860362e-01 1.860463e-01
4.284000e+00 8.948543e-06 -1.229553e-12 4.345130e-05 8.948542e-06 1.096018e-02 2.956954e-01 -2.956864e-01
4.288000e+00 6.946704e-06 -5.898192e-13 1.413132e-05 6.946704e-06 1.095917e-02 1.235715e-01 -1.235645e-01
4.292000e+00 8.980283e-06 8.942531e-13 -3.458366e-05 8.980284e-06 1.096220e-02 -3.851378e-02 3.852276e-02
4.296000e+00 7.203501e-06 1.188872e-12 -3.641146e-05 7.203502e-06 1.096143e-02 1.743742e-01 -1.743669e-01
4.300000e+00 1.142094e-06 -1.264426e-13 9.291036e-06 1.142094e-06 1.095624e-02 1.569928e-02 -1.569813e-02
4.304000e+00 -4.146566e-07 -1.262812e-12 4.066591e-05 -4.146578e-07 1.095542e-02 1.312659e-01 -1.312663e-01
4.308000e+00 6.825248e-06 -6.544035e-13 1.524516e-05 6.825247e-06 1.096350e-02 -3.146547e-02 3.147229e-02
4.312000e+00 5.723893e-06 8.964498e-13 -3.389530e-05 5.723894e-06 1.096335e-02 -1.598488e-01 1.598545e-01
4.316000e+00 7.447945e-06 1.233207e-12 -3.424826e-05 7.447946e-06 1.096604e-02 2.713250e-01 -2.713176e-01
4.320000e+00 5.618592e-06 -9.772959e-14 1.390271e-05 5.618592e-06 1.096518e-02 1.158275e-01 -1.158219e-01
4.324000e+00 8.428795e-06 -1.255841e-12 4.292295e-05 8.428794e-06 1.096898e-02 4.054928e-02 -4.054085e-02
4.328000e+00 8.953558e-06 -6.246297e-13 1.472555e-05 8.953557e-06 1.097056e-02 -1.092872e-01 1.092961e-01
4.332000e+00 7.008864e-06 9.273272e-13 -3.271126e-05 7.008864e-06 1.096965e-02 -4.720362e-01 4.720432e-01
4.336000e+00 5.264965e-06 1.254799e-12 -3.559480e-05 5.264967e-06 1.096888e-02 2.209802e-01 -2.209750e-01
4.340000e+00 2.822974e-06 -1.067304e-13 1.258360e-05 2.822974e-06 1.096734e-02 6.193334e-02 -6.193052e-02
4.344000e+00 -3.808821e-07 -1.285175e-12 4.652473e-05 -3.808834e-07 1.096494e-02 9.095458e-02 -9.095496e-02
4.348000e+00 2.047985e-06 -6.536544e-13 1.659212e-05 2.047984e-06 1.096816e-02 -6.708426e-02 6.708631e-02
4.352000e+00 7.839092e-06 9.248855e-13 -3.477658e-05 7.839093e-06 1.097489e-02 1.948890e-01 -1.948812e-01
4.356000e+00 6.674683e-06 1.287406e-12 -3.760936e-05 6.674685e-06 1.097475e-02 5.046922e-02 -5.046254e-02
4.360000e+00 4.072862e-06 -8.708266e-14 7.694044e-06 4.072861e-06 1.097311e-02 -1.010500e-01 1.010541e-01
4.364000e+00 -6.995674e-07 -1.328543e-12 4.161210e-05 -6.995687e-07 1.096917e-02 2.287112e-01 -2.287119e-01
4.368000e+00 1.875358e-06 -7.498409e-13 1.719788e-05 1.875357e-06 1.097254e-02 5.868230e-02 -5.868042e-02
4.372000e+00 6.481815e-06 8.671416e-13 -3.460096e-05 6.481815e-06 1.097807e-02 -9.438815e-02 9.439464e-02
4.376000e+00 3.270111e-06 1.295399e-12 -3.850861e-05 3.270112e-06 1.097581e-02 2.185489e-01 -2.185457e-01
4.380000e+00 -4.271568e-06 -7.975617e-14 7.778866e-06 -4.271568e-06 1.096903e-02 5.965648e-02 -5.966075e-02
4.384000e+00 -5.927824e-06 -1.400646e-12 4.580301e-05 -5.927825e-06 1.096797e-02 9.249859e-02 -9.250452e-02
4.388000e+00 -4.260887e-06 -8.349707e-13 2.078405e-05 -4.260888e-06 1.097023e-02 -6.500769e-02 6.500343e-02
4.392000e+00 -4.634886e-06 8.473593e-13 -3.118863e-05 -4.634885e-06 1.097047e-02 -1.720106e-01 1.720060e-01
4.396000e+00 -7.024980e-06 1.314551e-12 -3.097430e-05 -7.024979e-06 1.096864e-02 2.920693e-01 -2.920763e-01
4.400000e+00 -1.064474e-05 -6.936527e-14 1.486290e-05 -1.064474e-05 1.096547e-02 1.379907e-01 -1.380014e-01
4.404000e+00 -1.706837e-05 -1.398969e-12 4.116507e-05 -1.706837e-05 1.095931e-02 1.960913e-02 -1.962619e-02
4.408000e+00 -1.209786e-05 -8.630277e-13 1.232201e-05 -1.209786e-05 1.096451e-02 -1.260676e-01 1.260555e-01
4.412000e+00 -1.401256e-05 8.310586e-13 -3.439072e-05 -1.401256e-05 1.096287e-02 2.422788e-01 -2.422928e-01
4.416000e+00 -1.494777e-05 1.332613e-12 -3.768387e-05 -1.494777e-05 1.096215e-02 8.489754e-02 -8.491249e-02
4.420000e+00 -1.683373e-05 -6.106977e-14 8.910331e-06 -1.683373e-05 1.096042e-02 -6.879986e-02 6.878303e-02
4.424000e+00 -1.949700e-05 -1.432779e-12 4.161464e-05 -1.949701e-05 1.095782e-02 2.007925e-01 -2.008120e-01
4.428000e+00 -1.879441e-05 -8.941712e-13 1.506245e-05 -1.879442e-05 1.095854e-02 3.495030e-02 -3.496910e-02
4.432000e+00 -1.144410e-05 8.167418e-13 -3.304908e-05 -1.144409e-05 1.096604e-02 -1.124798e-01 1.124683e-01
4.436000e+00 -1.709455e-05 1.372299e-12 -3.425527e-05 -1.709455e-05 1.096056e-02 2.312248e-01 -2.312419e-01
4.440000e+00 -1.752699e-05 -2.574866e-14 1.072107e-05 -1.752699e-05 1.096018e-02 7.359489e-02 -7.361242e-02
4.444000e+00 -1.307067e-05 -1.446416e-12 4.267841e-05 -1.307067e-05 1.096475e-02 7.834521e-02 -7.835828e-02
4.448000e+00 -9.999730e-06 -9.009664e-13 1.622915e-05 -9.999731e-06 1.096806e-02 -7.463842e-02 7.462842e-02
4.452000e+00 -9.564143e-06 8.666790e-13 -3.420826e-05 -9.564142e-06 1.096879e-02 -1.722260e-01 1.722164e-01
4.456000e+00 -1.676184e-05 1.413803e-12 -3.959672e-05 -1.676184e-05 1.096176e-02 2.929275e-01 -2.929443e-01
4.460000e+00 -2.793112e-05 -5.596116e-14 8.930762e-06 -2.793112e-05 1.095042e-02 1.400636e-01 -1.400915e-01
4.464000e+00 -3.572689e-05 -1.551243e-12 4.347236e-05 -3.572689e-05 1.094210e-02 1.549737e-02 -1.553310e-02
4.468000e+00 -4.662627e-05 -1.022040e-12 1.396313e-05 -4.662627e-05 1.093032e-02 -1.259855e-01 1.259389e-01
4.472000e+00 -5.158635e-05 7.551705e-13 -3.704865e-05 -5.158635e-05 1.092417e-02 2.396598e-01 -2.397113e-01
4.476000e+00 -4.222405e-05 1.318692e-12 -3.733593e-05 -4.222405e-05 1.093239e-02 8.401200e-02 -8.405422e-02
4.480000e+00 -3.916432e-05 -5.596986e-14 1.243402e-05 -3.916432e-05 1.093450e-02 -6.596920e-02 6.593003e-02
4.484000e+00 -6.390090e-05 -1.473479e-12 4.492170e-05 -6.390090e-05 1.090840e-02 1.934550e-01 -1.935189e-01
4.488000e+00 -8.642663e-05 -1.103973e-12 2.323270e-05 -8.642663e-05 1.088363e-02 3.425414e-02 -3.434057e-02
4.492000e+00 -9.303340e-05 4.951126e-13 -3.140665e-05 -9.303340e-05 1.087421e-02 -1.080426e-01 1.079496e-01
4.496000e+00 -9.982292e-05 1.103167e-12 -3.816039e-05 -9.982292e-05 1.086431e-02 2.238101e-01 -2.239099e-01
4.500000e+00 -9.645058e-05 -1.444064e-13 1.255433e-05 -9.645058e-05 1.086445e-02 6.899428e-02 -6.909073e-02
4.504000e+00 -7.744714e-05 -1.492088e-12 4.344511e-05 -7.744714e-05 1.088056e-02 7.688047e-02 -7.695792e-02
4.508000e+00 -5.283045e-05 -1.017592e-12 1.636871e-05 -5.283046e-05 1.090301e-02 -6.880889e-02 6.875606e-02
4.512000e+00 -3.763714e-05 7.153138e-13 -3.507860e-05 -3.763714e-05 1.091671e-02 1.467372e-01 -1.467748e-01
4.516000e+00 -3.442498e-05 1.345935e-12 -3.758899e-05 -3.442498e-05 1.091873e-02 6.868519e-02 -6.871961e-02
4.520000e+00 -3.564582e-05 -2.518638e-15 9.308653e-06 -3.564582e-05 1.091633e-02 -7.775735e-02 7.772171e-02
4.524000e+00 -3.185037e-05 -1.481271e-12 4.143996e-05 -3.185037e-05 1.091897e-02 2.007306e-01 -2.007624e-01
4.528000e+00 -2.225458e-05 -1.029490e-12 1.554133e-05 -2.225458e-05 1.092763e-02 4.360912e-02 -4.363137e-02
4.532000e+00 -7.173068e-06 7.757427e-13 -3.551962e-05 -7.173067e-06 1.094220e-02 -9.787651e-02 9.786933e-02
4.536000e+00 5.960825e-06 1.495388e-12 -3.789508e-05 5.960826e-06 1.095532e-02 2.141905e-01 -2.141845e-01
4.540000e+00 1.377968e-05 1.797193e-13 8.227482e-06 1.377968e-05 1.096350e-02 6.040864e-02 -6.039486e-02
4.544000e+00 1.960789e-05 -1.339799e-12 4.168393e-05 1.960789e-05 1.096994e-02 8.222987e-02 -8.221027e-02
4.548000e+00 2.399259e-05 -9.419098e-13 1.404495e-05 2.399259e-05 1.097513e-02 -6.139717e-02 6.142116e-02
4.552000e+00 3.369057e-05 8.259518e-13 -2.946252e-05 3.369057e-05 1.098590e-02 -1.175570e-01 1.175907e-01
4.556000e+00 3.414881e-05 1.575496e-12 -3.113419e-05 3.414881e-05 1.098763e-02 2.661404e-01 -2.661062e-01
4.560000e+00 3.216270e-05 2.692809e-13 9.446050e-06 3.216270e-05 1.098691e-02 1.200532e-01 -1.200211e-01
4.564000e+00 2.994054e-05 -1.306709e-12 4.346005e-05 2.994054e-05 1.098590e-02 2.040007e-02 -2.037013e-02
4.568000e+00 3.113788e-05 -9.615351e-13 1.591737e-05 3.113788e-05 1.098831e-02 -1.060100e-01 1.060411e-01
4.572000e+00 2.622190e-05 8.371833e-13 -3.402319e-05 2.622190e-05 1.098456e-02 1.243331e-01 -1.243068e-01
4.576000e+00 1.640274e-05 1.574744e-12 -3.557249e-05 1.640274e-05 1.097566e-02 1.117059e-01 -1.116895e-01
4.580000e+00 1.631796e-05 1.975919e-13 1.015954e-05 1.631796e-05 1.097633e-02 -2.977477e-02 2.979109e-02
4.584000e+00 1.509518e-05 -1.384206e-12 4.291705e-05 1.509518e-05 1.097585e-02 1.520747e-01 -1.520596e-01
4.588000e+00 1.546840e-05 -9.895173e-13 1.834431e-05 1.546840e-05 1.097696e-02 7.591182e-03 -7.575714e-03
4.592000e+00 1.543564e-05 8.349020e-13 -3.032529e-05 1.543565e-05 1.097768e-02 3.963405e-01 -3.963251e-01
4.596000e+00 1.015838e-05 1.569980e-12 -3.677775e-05 1.015838e-05 1.097307e-02 1.438902e-01 -1.438801e-01
4.600000e+00 -3.978471e-06 1.709990e-13 7.634769e-06 -3.978470e-06 1.095926e-02 5.871809e-03 -5.875788e-03
4.604000e+00 -3.791574e-05 -1.492596e-12 4.246036e-05 -3.791575e-05 1.092479e-02 1.174937e-01 -1.175316e-01
4.608000e+00 -8.557681e-05 -1.258879e-12 1.686643e-05 -8.557682e-05 1.087512e-02 -1.959197e-02 1.950640e-02
4.612000e+00 -9.684146e-05 3.679809e-13 -3.264186e-05 -9.684146e-05 1.086075e-02 -1.359585e-01 1.358617e-01
4.616000e+00 -8.007796e-05 1.154064e-12 -3.553289e-05 -8.007796e-05 1.087445e-02 2.277157e-01 -2.277957e-01
4.620000e+00 -1.277544e-04 1.208353e-13 3.419734e-06 -1.277544e-04 1.082310e-02 9.333913e-02 -9.346688e-02
4.624000e+00 -2.471390e-04 -1.562199e-12 3.335741e-05 -2.471390e-04 1.069698e-02 3.294686e-02 -3.319400e-02
4.628000e+00 -3.627130e-04 -2.047839e-12 8.847500e-06 -3.627130e-04 1.057034e-02 -8.676038e-02 8.639767e-02
4.632000e+00 -3.885875e-04 -1.031390e-12 -3.907022e-05 -3.885875e-04 1.053067e-02 -9.498328e-02 9.459469e-02
4.636000e+00 -1.780856e-04 9.997641e-14 -3.458615e-05 -1.780856e-04 1.073045e-02 2.382406e-01 -2.384187e-01
4.640000e+00 1.176087e-04 7.915995e-13 1.592535e-05 1.176087e-04 1.102432e-02 1.296299e-01 -1.295123e-01
4.644000e+00 2.733386e-04 1.153506e-12 4.798298e-05 2.733386e-04 1.118630e-02 -1.756572e-02 1.783906e-02
4.648000e+00 2.839919e-04 1.000931e-12 2.228609e-05 2.839919e-04 1.120631e-02 -1.149456e-01 1.152296e-01
4.652000e+00 3.025352e-04 3.987879e-13 -2.532976e-05 3.025352e-04 1.123491e-02 -6.169585e-02 6.199838e-02
4.656000e+00 3.382991e-04 2.674235e-13 -3.211553e-05 3.382991e-04 1.128189e-02 2.060759e-01 -2.057376e-01
4.660000e+00 3.102032e-04 9.315259e-13 8.434661e-06 3.102032e-04 1.126535e-02 1.445032e-01 -1.441930e-01
4.664000e+00 2.453009e-04 1.286239e-12 4.006644e-05 2.453009e-04 1.121054e-02 -5.755262e-02 5.779792e-02
4.668000e+00 1.684734e-04 5.818483e-13 1.401193e-05 1.684734e-04 1.114144e-02 -1.294595e-01 1.296280e-01
4.672000e+00 1.139798e-04 -4.835454e-13 -3.337190e-05 1.139798e-04 1.109245e-02 -1.994485e-03 2.108465e-03
4.676000e+00 6.623146e-05 -5.939323e-13 -3.401142e-05 6.623146e-05 1.104846e-02 1.554763e-01 -1.554101e-01
4.680000e+00 2.331063e-05 2.572036e-13 9.497906e-06 2.331063e-05 1.100773e-02 5.908632e-02 -5.906300e-02
4.684000e+00 -9.048113e-06 7.500023e-13 4.447770e-05 -9.048113e-06 1.097624e-02 4.295186e-02 -4.296091e-02
4.688000e+00 -2.709741e-05 1.270833e-13 1.968820e-05 -2.709741e-05 1.095816e-02 -6.271628e-02 6.268919e-02
4.692000e+00 -4.095341e-05 -7.853710e-13 -2.888472e-05 -4.095341e-05 1.094369e-02 -1.395662e-01 1.395252e-01
4.696000e+00 -5.047946e-05 -7.591730e-13 -3.389673e-05 -5.047946e-05 1.093311e-02 1.826383e-01 -1.826888e-01
4.700000e+00 -5.387390e-05 1.535090e-13 9.842257e-06 -5.387390e-05 1.092840e-02 1.120985e-01 -1.121524e-01
4.704000e+00 -5.825637e-05 6.918291e-13 4.436003e-05 -5.825637e-05 1.092253e-02 -2.234919e-02 2.229093e-02
4.708000e+00 -6.376531e-05 1.041092e-13 1.724123e-05 -6.376531e-05 1.091532e-02 -1.041883e-01 1.041245e-01
4.712000e+00 -6.054546e-05 -8.263485e-13 -3.287367e-05 -6.054546e-05 1.091676e-02 -1.966934e-02 1.960880e-02
4.716000e+00 -6.310773e-05 -7.968587e-13 -3.710288e-05 -6.310773e-05 1.091239e-02 1.541350e-01 -1.541981e-01
4.720000e+00 -6.762464e-05 1.348001e-13 6.752672e-06 -6.762464e-05 1.090590e-02 1.324447e-01 -1.325123e-01
4.724000e+00 -6.599763e-05 6.562591e-13 4.071075e-05 -6.599763e-05 1.090546e-02 -6.929599e-02 6.923000e-02
4.728000e+00 -6.267832e-05 6.294115e-14 1.721900e-05 -6.267832e-05 1.090676e-02 -1.224348e-01 1.223721e-01
4.732000e+00 -6.463184e-05 -8.099528e-13 -3.341129e-05 -6.463184e-05 1.090277e-02 -1.332519e-01 1.331873e-01
4.736000e+00 -6.368746e-05 -7.765994e-13 -3.994461e-05 -6.368746e-05 1.090162e-02 9.466580e-02 -9.472949e-02
4.740000e+00 -6.619400e-05 1.233668e-13 6.430437e-06 -6.619400e-05 1.089695e-02 1.247730e-01 -1.248392e-01
4.744000e+00 -6.984001e-05 6.358901e-13 4.313952e-05 -6.984001e-05 1.089099e-02 -1.005484e-01 1.004785e-01
4.748000e+00 -6.580938e-05 4.353321e-14 2.039992e-05 -6.580938e-05 1.089267e-02 -1.172457e-01 1.171799e-01
4.752000e+00 -6.678078e-05 -8.087678e-13 -2.858565e-05 -6.678078e-05 1.088936e-02 8.547448e-02 -8.554127e-02
4.756000e+00 -6.366856e-05 -7.485937e-13 -3.350138e-05 -6.366857e-05 1.089013e-02 6.321698e-02 -6.328065e-02
4.760000e+00 -6.780670e-05 1.688494e-13 8.433579e-06 -6.780670e-05 1.088359e-02 1.212659e-01 -1.213337e-01
4.764000e+00 -6.581495e-05 6.502245e-13 4.003070e-05 -6.581495e-05 1.088310e-02 -1.282745e-01 1.282087e-01
4.768000e+00 -5.666157e-05 4.453421e-14 1.785804e-05 -5.666157e-05 1.088993e-02 -1.115297e-01 1.114731e-01
4.772000e+00 -5.341116e-05 -7.701300e-13 -3.143905e-05 -5.341116e-05 1.089104e-02 4.951044e-02 -4.956385e-02
4.776000e+00 -5.360068e-05 -6.792977e-13 -3.758653e-05 -5.360068e-05 1.088873e-02 1.022265e-01 -1.022801e-01
4.780000e+00 -4.968351e-05 1.792517e-13 6.438623e-06 -4.968351e-05 1.089056e-02 1.095265e-01 -1.095762e-01
4.784000e+00 -4.484117e-05 6.297535e-13 4.133885e-05 -4.484117e-05 1.089344e-02 -6.948769e-02 6.944285e-02
4.788000e+00 -4.702577e-05 6.537781e-14 1.811059e-05 -4.702577e-05 1.088931e-02 -1.044034e-01 1.043564e-01
4.792000e+00 -4.854588e-05 -7.535116e-13 -3.181862e-05 -4.854588e-05 1.088575e-02 -9.376655e-02 9.371800e-02
4.796000e+00 -5.121061e-05 -7.055035e-13 -3.641766e-05 -5.121061e-05 1.088094e-02 3.960866e-02 -3.965988e-02
4.800000e+00 -4.973219e-05 1.403731e-13 7.907643e-06 -4.973219e-05 1.088022e-02 8.672536e-02 -8.677509e-02
4.804000e+00 -4.756730e-05 6.265712e-13 4.100634e-05 -4.756730e-05 1.088022e-02 -9.073347e-02 9.068590e-02
4.808000e+00 -5.480077e-05 8.980312e-14 1.766124e-05 -5.480077e-05 1.087070e-02 -8.264309e-02 8.258829e-02
4.812000e+00 -5.537159e-05 -7.613018e-13 -3.224751e-05 -5.537159e-05 1.086767e-02 -3.272644e-02 3.267107e-02
4.816000e+00 -6.250022e-05 -7.492249e-13 -4.079070e-05 -6.250022e-05 1.085791e-02 -3.312798e-02 3.306548e-02
4.820000e+00 -6.986174e-05 6.848843e-14 5.870496e-06 -6.986174e-05 1.084762e-02 2.616650e-02 -2.623637e-02
4.824000e+00 -7.640133e-05 5.387106e-13 3.866453e-05 -7.640133e-05 1.083786e-02 -7.031380e-02 7.023740e-02
4.828000e+00 -7.368707e-05 -2.593860e-14 1.865231e-05 -7.368707e-05 1.083724e-02 -2.022387e-02 2.015018e-02
4.832000e+00 -6.602183e-05 -8.210713e-13 -3.323976e-05 -6.602183e-05 1.084171e-02 3.724802e-02 -3.731404e-02
4.836000e+00 -7.001701e-05 -7.359669e-13 -3.833172e-05 -7.001701e-05 1.083454e-02 -7.768529e-02 7.761527e-02
4.840000e+00 -7.400673e-05 9.121890e-14 3.615438e-06 -7.400673e-05 1.082719e-02 -3.095230e-02 3.087830e-02
4.844000e+00 -7.324301e-05 4.976106e-13 3.942374e-05 -7.324301e-05 1.082449e-02 -1.292370e-02 1.285046e-02
4.848000e+00 -7.159683e-05 -6.105162e-14 1.866539e-05 -7.159683e-05 1.082267e-02 3.537754e-02 -3.544914e-02
4.852000e+00 -7.564075e-05 -7.982862e-13 -3.205860e-05 -7.564075e-05 1.081507e-02 6.032954e-02 -6.040519e-02
4.856000e+00 -7.845536e-05 -7.165153e-13 -3.518933e-05 -7.845536e-05 1.080853e-02 -7.651978e-02 7.644133e-02
4.860000e+00 -8.272501e-05 9.082656e-14 8.006235e-06 -8.272501e-05 1.080036e-02 -4.074960e-02 4.066688e-02
4.864000e+00 -8.028002e-05 5.001657e-13 4.083250e-05 -8.028002e-05 1.079882e-02 2.140292e-02 -2.148320e-02
4.868000e+00 -7.555309e-05 -2.844627e-14 2.217358e-05 -7.555309e-05 1.079964e-02 3.718567e-02 -3.726122e-02
4.872000e+00 -6.599281e-05 -7.268487e-13 -2.529245e-05 -6.599281e-05 1.080550e-02 -1.580668e-01 1.580008e-01
4.876000e+00 -5.827710e-05 -5.926107e-13 -3.350479e-05 -5.827710e-05 1.080978e-02 -4.865483e-02 4.859655e-02
4.880000e+00 -6.014785e-05 2.137766e-13 8.131529e-06 -6.014785e-05 1.080454e-02 -5.847041e-02 5.841027e-02
4.884000e+00 -5.269999e-05 5.641849e-13 4.195107e-05 -5.269999e-05 1.080868e-02 5.844081e-02 -5.849351e-02
4.888000e+00 -4.274938e-05 1.739482e-14 2.147397e-05 -4.274938e-05 1.081560e-02 4.840080e-02 -4.844355e-02
4.892000e+00 -4.190199e-05 -6.292578e-13 -3.213972e-05 -4.190199e-05 1.081358e-02 -1.326135e-01 1.325716e-01
4.896000e+00 -3.340490e-05 -5.103639e-13 -3.918281e-05 -3.340490e-05 1.081935e-02 -6.704102e-02 6.700762e-02
4.900000e+00 -2.773916e-05 2.503022e-13 8.365139e-06 -2.773916e-05 1.082252e-02 -8.680688e-02 8.677915e-02
4.904000e+00 -1.483589e-05 6.169124e-13 4.398151e-05 -1.483589e-05 1.083324e-02 8.736240e-02 -8.737724e-02
4.908000e+00 -4.212052e-06 1.248720e-13 2.348864e-05 -4.212052e-06 1.084209e-02 6.521757e-02 -6.522178e-02
4.912000e+00 3.588707e-06 -5.102705e-13 -2.795135e-05 3.588706e-06 1.084844e-02 3.138560e-02 -3.138201e-02
4.916000e+00 1.540672e-05 -3.968243e-13 -3.490114e-05 1.540672e-05 1.085916e-02 6.589473e-03 -6.574066e-03
4.920000e+00 2.453351e-05 3.586013e-13 9.948137e-06 2.453351e-05 1.086757e-02 -3.306316e-02 3.308769e-02
4.924000e+00 3.205921e-05 7.392378e-13 3.903986e-05 3.205922e-05 1.087469e-02 6.073635e-02 -6.070430e-02
4.928000e+00 4.600218e-05 2.218786e-13 1.725734e-05 4.600218e-05 1.088863e-02 2.367292e-02 -2.362692e-02
4.932000e+00 6.109029e-05 -4.236993e-13 -3.012549e-05 6.109029e-05 1.090426e-02 7.495765e-02 -7.489656e-02
4.936000e+00 6.956147e-05 -2.662662e-13 -3.862310e-05 6.956147e-05 1.091373e-02 1.031914e-01 -1.031219e-01
4.940000e+00 7.547406e-05 4.832476e-13 2.280668e-06 7.547406e-05 1.092094e-02 6.147957e-02 -6.140410e-02
4.944000e+00 8.123126e-05 7.954779e-13 3.811348e-05 8.123126e-05 1.092825e-02 -3.185822e-02 3.193946e-02
4.948000e+00 8.786694e-05 2.612137e-13 1.615481e-05 8.786694e-05 1.093671e-02 -3.672796e-02 3.681583e-02
4.952000e+00 9.616149e-05 -3.620827e-13 -3.113197e-05 9.616149e-05 1.094715e-02 -5.882343e-02 5.891959e-02
4.956000e+00 9.644338e-05 -1.794338e-13 -3.801943e-05 9.644338e-05 1.094979e-02 8.285803e-02 -8.276159e-02
4.960000e+00 9.633260e-05 5.579217e-13 4.062091e-06 9.633260e-05 1.095210e-02 3.375105e-02 -3.365471e-02
4.964000e+00 1.000845e-04 8.355301e-13 3.905469e-05 1.000845e-04 1.095840e-02 1.871197e-02 -1.861189e-02
4.968000e+00 1.010413e-04 2.930288e-13 1.722083e-05 1.010413e-04 1.096205e-02 -3.363344e-02 3.373448e-02
4.972000e+00 1.037473e-04 -3.207185e-13 -3.285096e-05 1.037473e-04 1.096758e-02 -5.482607e-03 5.586354e-03
4.976000e+00 1.083292e-04 -1.549548e-13 -3.825877e-05 1.083292e-04 1.097518e-02 1.275703e-01 -1.274619e-01
4.980000e+00 1.063472e-04 5.845334e-13 3.544194e-06 1.063472e-04 1.097633e-02 8.907008e-02 -8.896373e-02
4.984000e+00 1.038570e-04 8.515778e-13 3.728246e-05 1.038570e-04 1.097696e-02 -4.349402e-02 4.359788e-02
4.988000e+00 1.031285e-04 2.643820e-13 2.070176e-05 1.031285e-04 1.097936e-02 -7.066014e-02 7.076326e-02
4.992000e+00 1.000037e-04 -3.570694e-13 -2.760483e-05 1.000037e-04 1.097936e-02 1.750616e-02 -1.740615e-02
4.996000e+00 9.867437e-05 -1.779794e-13 -3.841495e-05 9.867437e-05 1.098114e-02 3.949778e-02 -3.939911e-02
5.000000e+00 9.317558e-05 5.448019e-13 5.886847e-06 9.317558e-05 1.097869e-02 -1.643669e-02 1.652987e-02
5.004000e+00 8.629679e-05 7.923882e-13 4.342761e-05 8.629679e-05 1.097470e-02 8.005150e-02 -7.996521e-02
5.008000e+00 8.130548e-05 1.972187e-13 2.109183e-05 8.130548e-05 1.097244e-02 -6.512306e-03 6.593612e-03
5.012000e+00 7.591650e-05 -4.440683e-13 -2.515180e-05 7.591650e-05 1.096965e-02 1.297388e-03 -1.221471e-03
5.016000e+00 7.085522e-05 -2.609333e-13 -3.420310e-05 7.085522e-05 1.096705e-02 -1.136164e-02 1.143250e-02
5.020000e+00 6.319659e-05 4.740550e-13 5.512752e-06 6.319659e-05 1.096167e-02 -7.838188e-02 7.844508e-02
5.024000e+00 5.896747e-05 7.098209e-13 4.086257e-05 5.896747e-05 1.095955e-02 1.461396e-01 -1.460806e-01
5.028000e+00 5.476160e-05 1.083281e-13 2.248370e-05 5.476160e-05 1.095734e-02 3.353871e-02 -3.348395e-02
5.032000e+00 5.638593e-05 -5.180004e-13 -2.939251e-05 5.638593e-05 1.096095e-02 -7.699273e-02 7.704912e-02
5.036000e+00 5.290937e-05 -3.143940e-13 -3.588732e-05 5.290937e-05 1.095946e-02 1.518260e-01 -1.517731e-01
5.040000e+00 4.937316e-05 4.289104e-13 7.159636e-06 4.937316e-05 1.095782e-02 6.680103e-02 -6.675166e-02
5.044000e+00 4.353270e-05 6.744099e-13 3.952354e-05 4.353270e-05 1.095374e-02 9.185263e-03 -9.141731e-03
5.048000e+00 4.164137e-05 5.770003e-14 1.920448e-05 4.164137e-05 1.095350e-02 -5.853783e-02 5.857947e-02
5.052000e+00 3.874907e-05 -5.601078e-13 -2.955064e-05 3.874907e-05 1.095220e-02 -1.092877e-01 1.093265e-01
5.056000e+00 3.366472e-05 -3.349048e-13 -3.775329e-05 3.366472e-05 1.094859e-02 1.476647e-01 -1.476310e-01
5.060000e+00 3.199870e-05 4.108255e-13 4.317983e-06 3.199870e-05 1.094830e-02 6.702022e-02 -6.698822e-02
5.064000e+00 3.018344e-05 6.504278e-13 3.892721e-05 3.018344e-05 1.094782e-02 1.279084e-02 -1.276065e-02
5.068000e+00 2.605601e-05 5.170771e-14 2.109821e-05 2.605601e-05 1.094494e-02 -6.473896e-02 6.476502e-02
5.072000e+00 2.483605e-05 -5.579313e-13 -2.911096e-05 2.483605e-05 1.094489e-02 -6.806630e-02 6.809114e-02
5.076000e+00 2.326999e-05 -3.349511e-13 -3.916157e-05 2.326999e-05 1.094446e-02 1.750094e-01 -1.749862e-01
5.080000e+00 1.994727e-05 4.198913e-13 4.103360e-06 1.994727e-05 1.094220e-02 1.112518e-01 -1.112319e-01
5.084000e+00 2.441992e-05 6.657268e-13 3.932135e-05 2.441992e-05 1.094777e-02 -4.412187e-02 4.414629e-02
5.088000e+00 2.561600e-05 9.178177e-14 2.225893e-05 2.561600e-05 1.095018e-02 -9.251622e-02 9.254184e-02
5.092000e+00 2.561535e-05 -4.937568e-13 -2.827991e-05 2.561535e-05 1.095143e-02 -7.255846e-02 7.258408e-02
5.096000e+00 2.682755e-05 -2.866713e-13 -3.816357e-05 2.682755e-05 1.095393e-02 1.520034e-01 -1.519765e-01
5.100000e+00 2.434490e-05 4.417913e-13 1.382035e-06 2.434490e-05 1.095273e-02 1.211046e-01 -1.210803e-01
5.104000e+00 2.329980e-05 6.662924e-13 4.214780e-05 2.329980e-05 1.095292e-02 -7.148009e-02 7.150339e-02
5.108000e+00 2.261068e-05 8.349118e-14 2.749432e-05 2.261068e-05 1.095345e-02 -9.964029e-02 9.966290e-02
5.112000e+00 1.895536e-05 -5.000762e-13 -2.565938e-05 1.895536e-05 1.095095e-02 -1.003950e-01 1.004140e-01
5.116000e+00 1.743972e-05 -3.070052e-13 -3.940868e-05 1.743972e-05 1.095051e-02 6.640090e-02 -6.638346e-02
5.120000e+00 1.786097e-05 3.985327e-13 -8.900315e-09 1.786097e-05 1.095200e-02 9.457999e-02 -9.456213e-02
5.124000e+00 1.424909e-05 6.399358e-13 3.203332e-05 1.424909e-05 1.094941e-02 -6.803815e-02 6.805240e-02
5.128000e+00 1.462550e-05 4.059419e-14 1.377881e-05 1.462550e-05 1.095076e-02 -8.648001e-02 8.649464e-02
5.132000e+00 2.252411e-05 -5.848463e-13 -2.828655e-05 2.252411e-05 1.095979e-02 -6.440305e-02 6.442557e-02
5.136000e+00 1.861961e-05 -3.510249e-13 -3.854987e-05 1.861960e-05 1.095710e-02 -6.535944e-03 6.554563e-03
5.140000e+00 1.766881e-05 3.707212e-13 1.393842e-06 1.766881e-05 1.095729e-02 8.677407e-02 -8.675640e-02
5.144000e+00 1.542368e-05 5.795218e-13 3.640000e-05 1.542368e-05 1.095614e-02 -9.154092e-02 9.155635e-02
5.148000e+00 1.301133e-05 -2.399267e-14 2.099680e-05 1.301133e-05 1.095475e-02 -8.146781e-02 8.148082e-02
5.152000e+00 1.482155e-05 -6.060608e-13 -2.650181e-05 1.482155e-05 1.095758e-02 -2.434978e-02 2.436460e-02
5.156000e+00 1.377893e-05 -3.552607e-13 -3.599846e-05 1.377893e-05 1.095758e-02 -8.612610e-02 8.613988e-02
5.160000e+00 1.687031e-05 3.857130e-13 5.231899e-06 1.687031e-05 1.096176e-02 7.402767e-02 -7.401080e-02
5.164000e+00 1.541324e-05 6.212567e-13 3.876203e-05 1.541324e-05 1.096143e-02 -1.175046e-01 1.175200e-01
5.168000e+00 1.644307e-05 2.098289e-14 1.925858e-05 1.644307e-05 1.096359e-02 -6.983542e-02 6.985186e-02
5.172000e+00 2.012848e-05 -5.724024e-13 -2.796107e-05 2.012848e-05 1.096850e-02 5.080139e-03 -5.060010e-03
5.176000e+00 2.097095e-05 -3.228691e-13 -3.549443e-05 2.097095e-05 1.097066e-02 2.062659e-02 -2.060562e-02
5.180000e+00 1.946266e-05 4.316786e-13 3.624019e-06 1.946266e-05 1.097047e-02 8.595966e-02 -8.594019e-02
5.184000e+00 2.106084e-05 6.372448e-13 4.079021e-05 2.106084e-05 1.097340e-02 -3.184687e-01 3.184898e-01
5.188000e+00 2.197990e-05 3.021181e-14 2.324470e-05 2.197990e-05 1.097571e-02 -1.487915e-01 1.488135e-01
5.192000e+00 2.450374e-05 -5.416317e-13 -2.619638e-05 2.450374e-05 1.097970e-02 -4.515398e-01 4.515643e-01
5.196000e+00 2.579523e-05 -2.802459e-13 -3.671024e-05 2.579523e-05 1.098254e-02 1.963706e-01 -1.963448e-01
5.200000e+00 2.649405e-05 4.630101e-13 4.128565e-06 2.649405e-05 1.098484e-02 1.354171e-01 -1.353906e-01
5.204000e+00 2.366527e-05 6.653266e-13 4.295577e-05 2.366527e-05 1.098359e-02 -6.451909e-02 6.454276e-02
5.208000e+00 2.140183e-05 4.201469e-14 2.464695e-05 2.140183e-05 1.098283e-02 -1.109324e-01 1.109538e-01
5.212000e+00 2.207241e-05 -5.526024e-13 -2.653058e-05 2.207241e-05 1.098499e-02 -1.144133e-01 1.144354e-01
5.216000e+00 1.614409e-05 -2.961209e-13 -4.025503e-05 1.614409e-05 1.098047e-02 6.985992e-02 -6.984378e-02
5.220000e+00 1.055000e-05 4.296620e-13 1.500201e-06 1.055000e-05 1.097609e-02 1.070961e-01 -1.070856e-01
5.224000e+00 1.252259e-05 6.048946e-13 3.837300e-05 1.252260e-05 1.097922e-02 -8.306566e-02 8.307818e-02
5.228000e+00 1.322915e-05 -8.788735e-15 1.970519e-05 1.322915e-05 1.098114e-02 -9.160865e-02 9.162188e-02
5.232000e+00 1.844264e-05 -5.765839e-13 -2.389348e-05 1.844264e-05 1.098768e-02 -4.975577e-02 4.977421e-02
5.236000e+00 2.186061e-05 -2.894052e-13 -3.079760e-05 2.186061e-05 1.099259e-02 -4.638369e-02 4.640555e-02
5.240000e+00 1.403491e-05 4.713242e-13 5.251385e-06 1.403491e-05 1.098619e-02 8.754453e-02 -8.753049e-02
5.244000e+00 9.460049e-06 6.138774e-13 3.836667e-05 9.460050e-06 1.098283e-02 -1.112184e-01 1.112278e-01
5.248000e+00 8.615483e-06 -5.721213e-14 2.109102e-05 8.615483e-06 1.098311e-02 -7.428459e-02 7.429321e-02
5.252000e+00 1.522145e-05 -6.053894e-13 -2.679806e-05 1.522145e-05 1.099095e-02 1.480967e-02 -1.479445e-02
5.256000e+00 1.672451e-05 -2.546610e-13 -3.623215e-05 1.672451e-05 1.099384e-02 -1.485325e-01 1.485492e-01
5.260000e+00 1.286001e-05 5.078291e-13 3.526920e-06 1.286001e-05 1.099133e-02 6.439603e-02 -6.438317e-02
5.264000e+00 1.003556e-05 6.084509e-13 3.659678e-05 1.003556e-05 1.098975e-02 -1.365702e-01 1.365802e-01
5.268000e+00 1.509404e-05 -1.040404e-13 1.994792e-05 1.509404e-05 1.099610e-02 -5.011585e-02 5.013094e-02
5.272000e+00 1.381735e-05 -6.165248e-13 -2.603360e-05 1.381734e-05 1.099619e-02 7.987810e-02 -7.986428e-02
5.276000e+00 1.187858e-05 -2.387313e-13 -3.537639e-05 1.187858e-05 1.099557e-02 -2.296538e-01 2.296657e-01
5.280000e+00 1.183821e-05 5.010007e-13 4.841016e-06 1.183821e-05 1.099682e-02 3.686991e-02 -3.685808e-02
5.284000e+00 1.112310e-05 5.850105e-13 4.033698e-05 1.112310e-05 1.099739e-02 -1.536787e-01 1.536898e-01
5.288000e+00 1.647732e-05 -1.010599e-13 2.538907e-05 1.647732e-05 1.100412e-02 -2.041790e-02 2.043438e-02
5.292000e+00 1.616223e-05 -5.724569e-13 -2.383576e-05 1.616223e-05 1.100528e-02 1.366672e-01 -1.366511e-01
5.296000e+00 1.201735e-05 -1.902557e-13 -3.709997e-05 1.201735e-05 1.100254e-02 -2.839485e-01 2.839605e-01
5.300000e+00 7.391266e-06 5.054883e-13 -6.241743e-07 7.391266e-06 1.099917e-02 1.075115e-02 -1.074376e-02
5.304000e+00 1.218567e-05 5.341224e-13 3.898085e-05 1.218567e-05 1.100523e-02 -1.618469e-01 1.618591e-01
5.308000e+00 1.075292e-05 -1.113830e-13 2.646154e-05 1.075292e-05 1.100513e-02 7.991675e-03 -7.980923e-03
5.312000e+00 1.248797e-05 -5.460125e-13 -2.530369e-05 1.248797e-05 1.100821e-02 1.768923e-01 -1.768799e-01
5.316000e+00 1.363501e-05 -1.710327e-13 -3.982720e-05 1.363501e-05 1.101076e-02 -3.122737e-01 3.122873e-01
5.320000e+00 1.312145e-05 5.081766e-13 1.988677e-06 1.312145e-05 1.101167e-02 -8.666541e-03 8.679662e-03
5.324000e+00 9.179420e-06 5.594568e-13 3.775019e-05 9.179421e-06 1.100908e-02 -1.635076e-01 1.635168e-01
5.328000e+00 8.856096e-06 -1.185946e-13 2.131599e-05 8.856096e-06 1.101004e-02 2.992374e-02 -2.991488e-02
5.332000e+00 1.510219e-05 -5.933853e-13 -2.531125e-05 1.510218e-05 1.101768e-02 1.996514e-01 -1.996363e-01
5.336000e+00 1.196430e-05 -1.897779e-13 -3.470397e-05 1.196430e-05 1.101600e-02 -3.206244e-01 3.206363e-01
5.340000e+00 1.166965e-05 5.167508e-13 2.786408e-06 1.166965e-05 1.101711e-02 -2.059355e-02 2.060522e-02
5.344000e+00 1.042471e-05 5.448505e-13 3.567665e-05 1.042471e-05 1.101725e-02 -1.615716e-01 1.615820e-01
5.348000e+00 9.030124e-06 -1.585077e-13 2.196734e-05 9.030124e-06 1.101720e-02 4.515134e-02 -4.514231e-02
5.352000e+00 7.875341e-06 -6.202177e-13 -2.640648e-05 7.875340e-06 1.101735e-02 2.093832e-01 -2.093754e-01
5.356000e+00 -4.206552e-06 -2.229384e-13 -3.821261e-05 -4.206553e-06 1.100634e-02 -3.158521e-01 3.158479e-01
5.360000e+00 -2.129765e-05 4.346044e-13 -8.970582e-07 -2.129764e-05 1.098980e-02 -2.753120e-02 2.750990e-02
5.364000e+00 -1.888750e-05 3.822271e-13 3.633228e-05 -1.888750e-05 1.099249e-02 -1.575349e-01 1.575160e-01
5.368000e+00 -2.004660e-05 -2.769534e-13 2.233031e-05 -2.004660e-05 1.099162e-02 5.615900e-02 -5.617905e-02
5.372000e+00 -1.831380e-05 -6.408987e-13 -2.622866e-05 -1.831381e-05 1.099364e-02 2.109708e-01 -2.109891e-01
5.376000e+00 -1.804461e-05 -2.087854e-13 -4.018659e-05 -1.804461e-05 1.099422e-02 -3.028927e-01 3.028747e-01
5.380000e+00 -2.103530e-05 4.197036e-13 -2.382444e-06 -2.103530e-05 1.099148e-02 -3.232052e-02 3.229949e-02
5.384000e+00 -4.058014e-05 3.593557e-13 3.712222e-05 -4.058014e-05 1.097177e-02 -1.512255e-01 1.511849e-01
5.388000e+00 -7.547869e-05 -3.793504e-13 2.128974e-05 -7.547869e-05 1.093571e-02 6.506065e-02 -6.513613e-02
5.392000e+00 -7.931565e-05 -8.990040e-13 -2.366583e-05 -7.931565e-05 1.092998e-02 2.071737e-01 -2.072530e-01
5.396000e+00 -8.126126e-05 -4.447099e-13 -3.551732e-05 -8.126126e-05 1.092599e-02 -2.843346e-01 2.842534e-01
5.400000e+00 -7.331261e-05 3.610206e-13 1.461413e-06 -7.331261e-05 1.093195e-02 -3.672888e-02 3.665556e-02
5.404000e+00 -6.417240e-05 4.469960e-13 3.684039e-05 -6.417240e-05 1.093936e-02 -1.418966e-01 1.418324e-01
5.408000e+00 -3.784392e-05 -2.734174e-13 2.662542e-05 -3.784392e-05 1.096455e-02 7.245292e-02 -7.249076e-02
5.412000e+00 -2.392556e-05 -6.900272e-13 -2.224633e-05 -2.392556e-05 1.097802e-02 1.989111e-01 -1.989351e-01
5.416000e+00 -2.234484e-05 -2.118008e-13 -3.631354e-05 -2.234484e-05 1.097941e-02 -2.609370e-01 2.609146e-01
5.420000e+00 -2.722086e-05 4.991224e-13 -1.369146e-06 -2.722086e-05 1.097427e-02 -4.101557e-02 4.098835e-02
5.424000e+00 -2.034699e-05 4.358208e-13 3.430573e-05 -2.034699e-05 1.098090e-02 -1.288147e-01 1.287944e-01
5.428000e+00 -5.095716e-06 -2.862746e-13 1.855659e-05 -5.095716e-06 1.099629e-02 7.758343e-02 -7.758853e-02
5.432000e+00 1.203423e-05 -6.349472e-13 -2.309600e-05 1.203422e-05 1.101413e-02 1.862481e-01 -1.862361e-01
5.436000e+00 2.425568e-05 -8.233126e-14 -3.193825e-05 2.425568e-05 1.102759e-02 -2.335974e-01 2.336216e-01
5.440000e+00 2.895112e-05 6.390062e-13 6.555340e-06 2.895112e-05 1.103384e-02 -4.503493e-02 4.506388e-02
5.444000e+00 3.903556e-05 5.471560e-13 4.034961e-05 3.903556e-05 1.104576e-02 -1.121161e-01 1.121551e-01
5.448000e+00 4.393026e-05 -1.835837e-13 2.215600e-05 4.393026e-05 1.105278e-02 7.973184e-02 -7.968791e-02
5.452000e+00 4.995250e-05 -5.262760e-13 -2.587131e-05 4.995250e-05 1.106115e-02 1.697800e-01 -1.697301e-01
5.456000e+00 5.034092e-05 1.149771e-14 -3.927455e-05 5.034092e-05 1.106403e-02 -2.033314e-01 2.033817e-01
5.460000e+00 4.364974e-05 6.782078e-13 -1.532256e-06 4.364974e-05 1.105975e-02 -4.857258e-02 4.861623e-02
5.464000e+00 4.279460e-05 5.186231e-13 3.715860e-05 4.279460e-05 1.106120e-02 -9.255849e-02 9.260129e-02
5.468000e+00 4.216875e-05 -2.422989e-13 2.433644e-05 4.216875e-05 1.106288e-02 7.893745e-02 -7.889528e-02
5.472000e+00 3.941689e-05 -5.519282e-13 -2.519260e-05 3.941689e-05 1.106240e-02 1.506493e-01 -1.506099e-01
5.476000e+00 3.673575e-05 -7.460411e-16 -3.682705e-05 3.673575e-05 1.106192e-02 -1.712984e-01 1.713352e-01
5.480000e+00 3.261307e-05 6.602388e-13 4.135526e-07 3.261307e-05 1.105990e-02 -5.158212e-02 5.161473e-02
5.484000e+00 2.824082e-05 5.110221e-13 3.502638e-05 2.824082e-05 1.105750e-02 -7.072450e-02 7.075274e-02
5.488000e+00 2.636147e-05 -2.528086e-13 2.557818e-05 2.636147e-05 1.105750e-02 7.611321e-02 -7.608685e-02
5.492000e+00 2.919746e-05 -5.541866e-13 -2.177364e-05 2.919746e-05 1.106225e-02 1.298215e-01 -1.297923e-01
5.496000e+00 2.390070e-05 3.487363e-14 -3.604892e-05 2.390070e-05 1.105884e-02 -1.378744e-01 1.378983e-01
5.500000e+00 1.022691e-05 6.886106e-13 -3.155429e-06 1.022691e-05 1.104673e-02 -5.381418e-02 5.382441e-02
5.504000e+00 -1.026490e-05 4.534942e-13 3.459676e-05 -1.026490e-05 1.102720e-02 -4.673042e-02 4.672016e-02
5.508000e+00 -4.664696e-05 -4.042105e-13 2.467602e-05 -4.664696e-05 1.099076e-02 7.178574e-02 -7.183239e-02
5.512000e+00 -5.830958e-05 -8.187277e-13 -1.672043e-05 -5.830958e-05 1.097816e-02 1.069971e-01 -1.070555e-01
5.516000e+00 -2.880944e-05 -2.189059e-13 -3.357090e-05 -2.880945e-05 1.100701e-02 -1.025261e-01 1.024973e-01
5.520000e+00 -4.944988e-05 6.906713e-13 -3.138650e-06 -4.944988e-05 1.098585e-02 -5.431603e-02 5.426658e-02
5.524000e+00 -1.639432e-04 5.352944e-13 2.986895e-05 -1.639432e-04 1.086839e-02 -2.070960e-02 2.054566e-02
5.528000e+00 -2.963516e-04 -9.011178e-13 1.872693e-05 -2.963516e-04 1.072852e-02 6.511867e-02 -6.541502e-02
5.532000e+00 -3.623968e-04 -2.026454e-12 -2.614592e-05 -3.623968e-04 1.065131e-02 8.075379e-02 -8.111618e-02
5.536000e+00 -1.952757e-04 -1.409559e-12 -3.370035e-05 -1.952757e-04 1.080887e-02 -6.429579e-02 6.410051e-02
5.540000e+00 8.322114e-05 8.231274e-13 5.146080e-06 8.322114e-05 1.108562e-02 -5.111473e-02 5.119795e-02
5.544000e+00 2.176097e-04 2.465074e-12 4.340769e-05 2.176097e-04 1.122563e-02 6.933538e-03 -6.715929e-03
5.548000e+00 2.290007e-04 1.459323e-12 2.842350e-05 2.290007e-04 1.124535e-02 5.517699e-02 -5.494799e-02
5.552000e+00 2.404601e-04 -8.975120e-13 -1.776955e-05 2.404601e-04 1.126569e-02 5.059987e-02 -5.035941e-02
5.556000e+00 2.945361e-04 -1.310112e-12 -3.068184e-05 2.945361e-04 1.132997e-02 -2.137111e-02 2.166564e-02
5.560000e+00 3.020485e-04 9.888817e-13 9.073996e-07 3.020485e-04 1.134896e-02 -4.223554e-02 4.253759e-02
5.564000e+00 2.666526e-04 2.772745e-12 3.410823e-05 2.666526e-04 1.132473e-02 3.216510e-02 -3.189845e-02
5.568000e+00 1.911851e-04 1.426361e-12 2.050006e-05 1.911851e-04 1.125862e-02 3.949886e-02 -3.930768e-02
5.572000e+00 1.299443e-04 -1.452840e-12 -2.877147e-05 1.299443e-04 1.120443e-02 -9.085249e-01 9.086549e-01
5.576000e+00 8.172475e-05 -2.067421e-12 -3.874590e-05 8.172475e-05 1.116140e-02 -9.223185e-02 9.231357e-02
5.580000e+00 4.170003e-05 3.116553e-13 -7.222154e-07 4.170003e-05 1.112505e-02 -1.292566e-01 1.292983e-01
5.584000e+00 9.050745e-06 2.282842e-12 3.687327e-05 9.050747e-06 1.109481e-02 1.340928e-01 -1.340838e-01
5.588000e+00 -1.935153e-05 1.045701e-12 2.535363e-05 -1.935153e-05 1.106774e-02 7.931542e-02 -7.933477e-02
5.592000e+00 -4.188632e-05 -1.747675e-12 -2.134522e-05 -4.188632e-05 1.104562e-02 2.603505e-02 -2.607693e-02
5.596000e+00 -5.600435e-05 -2.290114e-12 -3.808468e-05 -5.600435e-05 1.103124e-02 2.833499e-02 -2.839099e-02
5.600000e+00 -6.401547e-05 1.474419e-13 3.302455e-08 -6.401547e-05 1.102254e-02 -3.394094e-02 3.387693e-02
5.604000e+00 -6.590106e-05 2.199434e-12 4.019048e-05 -6.590105e-05 1.101975e-02 6.920055e-02 -6.926645e-02
5.608000e+00 -6.214831e-05 1.049136e-12 3.052937e-05 -6.214831e-05 1.102259e-02 2.045849e-02 -2.052064e-02
5.612000e+00 -6.231970e-05 -1.681514e-12 -1.691388e-05 -6.231970e-05 1.102153e-02 -3.792399e-01 3.791776e-01
5.616000e+00 -6.603292e-05 -2.218700e-12 -3.199786e-05 -6.603292e-05 1.101682e-02 -4.233160e-02 4.226557e-02
5.620000e+00 -7.061576e-05 1.784511e-13 -9.728492e-07 -7.061576e-05 1.101105e-02 -1.445622e-01 1.444916e-01
5.624000e+00 -7.230397e-05 2.186128e-12 3.487052e-05 -7.230397e-05 1.100802e-02 2.252356e-01 -2.253079e-01
5.628000e+00 -7.242358e-05 1.034322e-12 2.504577e-05 -7.242358e-05 1.100648e-02 6.721684e-02 -6.728926e-02
5.632000e+00 -7.155170e-05 -1.700111e-12 -2.407071e-05 -7.155170e-05 1.100590e-02 -4.372999e-02 4.365844e-02
5.636000e+00 -7.618648e-05 -2.276802e-12 -4.062833e-05 -7.618648e-05 1.099970e-02 1.246313e-01 -1.247075e-01
5.640000e+00 -7.570085e-05 7.106943e-14 -3.897659e-06 -7.570085e-05 1.099850e-02 1.332544e-02 -1.340114e-02
5.644000e+00 -7.410378e-05 2.104845e-12 3.626323e-05 -7.410377e-05 1.099840e-02 8.522497e-02 -8.529908e-02
5.648000e+00 -7.671137e-05 1.018762e-12 2.568710e-05 -7.671137e-05 1.099403e-02 -3.204363e-02 3.196691e-02
5.652000e+00 -6.770632e-05 -1.698945e-12 -2.069063e-05 -6.770632e-05 1.100134e-02 -1.163225e-01 1.162548e-01
5.656000e+00 -6.507437e-05 -2.262214e-12 -3.868889e-05 -6.507438e-05 1.100244e-02 1.841968e-01 -1.842619e-01
5.660000e+00 -6.598161e-05 1.035899e-13 -5.565154e-06 -6.598161e-05 1.099999e-02 6.143207e-02 -6.149805e-02
5.664000e+00 -6.620689e-05 2.127145e-12 3.412642e-05 -6.620689e-05 1.099816e-02 5.442720e-02 -5.449341e-02
5.668000e+00 -7.161929e-05 1.014206e-12 2.224954e-05 -7.161929e-05 1.099100e-02 -6.843039e-02 6.835878e-02
5.672000e+00 -6.801503e-05 -1.731147e-12 -2.252128e-05 -6.801503e-05 1.099278e-02 -3.705235e-01 3.704554e-01
5.676000e+00 -6.487869e-05 -2.307625e-12 -3.724159e-05 -6.487869e-05 1.099417e-02 1.389514e-01 -1.390162e-01
5.680000e+00 -6.497447e-05 8.300142e-14 -2.786032e-06 -6.497447e-05 1.099234e-02 -7.762577e-03 7.697603e-03
5.684000e+00 -6.629375e-05 2.134115e-12 3.576138e-05 -6.629375e-05 1.098922e-02 1.429135e-01 -1.429798e-01
5.688000e+00 -6.607201e-05 1.016157e-12 2.532815e-05 -6.607201e-05 1.098758e-02 -2.584604e-02 2.577997e-02
5.692000e+00 -5.975568e-05 -1.711036e-12 -1.944004e-05 -5.975568e-05 1.099211e-02 -1.514844e-01 1.514246e-01
5.696000e+00 -6.256249e-05 -2.248532e-12 -3.601409e-05 -6.256249e-05 1.098754e-02 2.407612e-01 -2.408238e-01
5.700000e+00 -7.033038e-05 1.363003e-13 -5.096560e-06 -7.033038e-05 1.097778e-02 9.567386e-02 -9.574419e-02
5.704000e+00 -7.051527e-05 2.125735e-12 3.705068e-05 -7.051527e-05 1.097542e-02 4.827976e-02 -4.835027e-02
5.708000e+00 -7.248527e-05 9.999427e-13 2.702053e-05 -7.248527e-05 1.097119e-02 -9.941932e-02 9.934684e-02
5.712000e+00 -6.985291e-05 -1.687751e-12 -1.880449e-05 -6.985291e-05 1.097153e-02 -2.048771e-01 2.048072e-01
5.716000e+00 -7.421517e-05 -2.208799e-12 -3.357744e-05 -7.421518e-05 1.096480e-02 2.812047e-01 -2.812789e-01
5.720000e+00 -8.003872e-05 1.440720e-13 -2.653471e-06 -8.003872e-05 1.095638e-02 1.346388e-01 -1.347188e-01
5.724000e+00 -8.607036e-05 2.100661e-12 3.051186e-05 -8.607036e-05 1.094749e-02 1.458920e-02 -1.467527e-02
5.728000e+00 -8.604288e-05 9.370588e-13 2.331013e-05 -8.604288e-05 1.094450e-02 -1.279674e-01 1.278814e-01
5.732000e+00 -8.760248e-05 -1.738084e-12 -2.206528e-05 -8.760249e-05 1.093984e-02 -2.297192e-01 2.296316e-01
5.736000e+00 -9.264982e-05 -2.269576e-12 -3.530147e-05 -9.264982e-05 1.093152e-02 3.034135e-01 -3.035061e-01
5.740000e+00 -9.694190e-05 5.024600e-14 -6.831448e-06 -9.694190e-05 1.092373e-02 1.544438e-01 -1.545408e-01
5.744000e+00 -1.032445e-04 1.993740e-12 3.147898e-05 -1.032444e-04 1.091368e-02 -9.272522e-04 8.240078e-04
5.748000e+00 -9.555921e-05 8.708732e-13 2.416958e-05 -9.555921e-05 1.091758e-02 -1.429227e-01 1.428271e-01
5.752000e+00 -9.125504e-05 -1.722786e-12 -2.104618e-05 -9.125505e-05 1.091825e-02 -2.447741e-01 2.446829e-01
5.756000e+00 -9.860819e-05 -2.203535e-12 -3.760605e-05 -9.860819e-05 1.090715e-02 3.182163e-01 -3.183149e-01
5.760000e+00 -1.006918e-04 7.279895e-14 -3.856331e-06 -1.006918e-04 1.090109e-02 1.671142e-01 -1.672149e-01
5.764000e+00 -9.858259e-05 1.978405e-12 3.698957e-05 -9.858259e-05 1.089916e-02 -1.032538e-02 1.022680e-02
5.768000e+00 -8.868614e-05 9.095281e-13 2.749946e-05 -8.868614e-05 1.090517e-02 -1.525263e-01 1.524376e-01
5.772000e+00 -8.308847e-05 -1.614263e-12 -1.793132e-05 -8.308847e-05 1.090710e-02 -2.551257e-01 2.550426e-01
5.776000e+00 -8.562102e-05 -2.092729e-12 -3.521217e-05 -8.562102e-05 1.090090e-02 3.288726e-01 -3.289582e-01
5.780000e+00 -8.291316e-05 1.264280e-13 -1.894565e-06 -8.291316e-05 1.089989e-02 1.760625e-01 -1.761454e-01
5.784000e+00 -7.274334e-05 1.993426e-12 3.834250e-05 -7.274334e-05 1.090652e-02 -8.765787e-01 8.765059e-01
5.788000e+00 -6.759897e-05 9.691894e-13 2.549535e-05 -6.759897e-05 1.090835e-02 -1.587707e-02 1.580947e-02
5.792000e+00 -5.792621e-05 -1.536375e-12 -2.173924e-05 -5.792621e-05 1.091493e-02 -1.594349e-01 1.593769e-01
5.796000e+00 -4.760191e-05 -2.041150e-12 -3.911381e-05 -4.760191e-05 1.092248e-02 2.664806e-01 -2.665282e-01
5.800000e+00 -4.181355e-05 1.705361e-13 -8.751525e-06 -4.181355e-05 1.092575e-02 1.060426e-01 -1.060844e-01
5.804000e+00 -3.463960e-05 2.038359e-12 3.279802e-05 -3.463960e-05 1.093061e-02 5.212554e-02 -5.216018e-02
5.808000e+00 -2.637809e-05 1.001342e-12 2.716452e-05 -2.637809e-05 1.093681e-02 -1.054213e-01 1.053949e-01
5.812000e+00 -1.692482e-05 -1.483155e-12 -1.872564e-05 -1.692482e-05 1.094450e-02 -2.261237e-01 2.261068e-01
5.816000e+00 -1.227059e-05 -1.961986e-12 -3.487691e-05 -1.227059e-05 1.094763e-02 3.139766e-01 -3.139889e-01
5.820000e+00 -5.884698e-06 2.553629e-13 2.154373e-06 -5.884698e-06 1.095268e-02 1.565809e-01 -1.565868e-01
5.824000e+00 1.010441e-05 2.151101e-12 4.260289e-05 1.010441e-05 1.096773e-02 4.260983e-03 -4.250879e-03
5.828000e+00 2.901751e-05 1.179426e-12 3.346047e-05 2.901751e-05 1.098633e-02 -1.434453e-01 1.434744e-01
5.832000e+00 3.503071e-05 -1.254495e-12 -1.522553e-05 3.503071e-05 1.099249e-02 -2.541323e-01 2.541673e-01
5.836000e+00 3.925044e-05 -1.789980e-12 -3.585832e-05 3.925043e-05 1.099706e-02 3.346286e-01 -3.345894e-01
5.840000e+00 4.343660e-05 3.227622e-13 -7.791917e-06 4.343660e-05 1.100177e-02 1.782724e-01 -1.782289e-01
5.844000e+00 4.726208e-05 2.164545e-12 2.972251e-05 4.726208e-05 1.100629e-02 -1.617743e-02 1.622469e-02
5.848000e+00 5.395027e-05 1.193800e-12 2.480590e-05 5.395027e-05 1.101389e-02 -1.597530e-01 1.598070e-01
5.852000e+00 5.889843e-05 -1.237260e-12 -1.888527e-05 5.889843e-05 1.101999e-02 -2.667213e-01 2.667802e-01
5.856000e+00 6.142681e-05 -1.783149e-12 -3.835767e-05 6.142681e-05 1.102384e-02 3.445698e-01 -3.445084e-01
5.860000e+00 6.477205e-05 3.043648e-13 -8.218264e-06 6.477205e-05 1.102865e-02 1.882227e-01 -1.881580e-01
5.864000e+00 7.102527e-05 2.148400e-12 3.169885e-05 7.102527e-05 1.103658e-02 -2.515135e-02 2.522237e-02
5.868000e+00 6.979460e-05 1.225751e-12 2.683031e-05 6.979460e-05 1.103716e-02 -1.672122e-01 1.672820e-01
5.872000e+00 7.049956e-05 -1.196412e-12 -1.488265e-05 7.049956e-05 1.103971e-02 -2.729747e-01 2.730452e-01
5.876000e+00 7.250213e-05 -1.778703e-12 -3.620026e-05 7.250213e-05 1.104365e-02 3.499634e-01 -3.498909e-01
5.880000e+00 7.363313e-05 2.873229e-13 -3.243613e-06 7.363313e-05 1.104682e-02 1.932510e-01 -1.931773e-01
5.884000e+00 6.915742e-05 2.167106e-12 3.391477e-05 6.915742e-05 1.104437e-02 -1.296909e-01 1.297600e-01
5.888000e+00 6.564047e-05 1.242296e-12 2.514268e-05 6.564047e-05 1.104278e-02 -1.325248e-01 1.325904e-01
5.892000e+00 6.867862e-05 -1.218097e-12 -2.167144e-05 6.867862e-05 1.104778e-02 -3.311938e-01 3.312625e-01
5.896000e+00 6.581232e-05 -1.814753e-12 -3.734618e-05 6.581232e-05 1.104692e-02 3.068741e-01 -3.068083e-01
5.900000e+00 5.779846e-05 2.642503e-13 -5.365010e-06 5.779846e-05 1.104076e-02 1.416741e-01 -1.416163e-01
5.904000e+00 5.485202e-05 2.108750e-12 3.617309e-05 5.485202e-05 1.103951e-02 4.062552e-02 -4.057067e-02
5.908000e+00 5.022510e-05 1.173696e-12 3.188081e-05 5.022510e-05 1.103648e-02 1.658686e-01 -1.658184e-01
5.912000e+00 4.620067e-05 -1.254056e-12 -1.102737e-05 4.620067e-05 1.103393e-02 -8.778631e-03 8.824831e-03
5.916000e+00 4.063759e-05 -1.822311e-12 -3.684935e-05 4.063759e-05 1.102970e-02 1.558019e-01 -1.557613e-01
5.920000e+00 3.822069e-05 2.418818e-13 -7.458713e-06 3.822069e-05 1.102850e-02 -8.315596e-03 8.353816e-03
5.924000e+00 4.280960e-05 2.101784e-12 3.370401e-05 4.280961e-05 1.103437e-02 1.563326e-01 -1.562898e-01
5.928000e+00 3.449893e-05 1.207331e-12 2.597974e-05 3.449893e-05 1.102730e-02 -1.764931e-02 1.768381e-02
5.932000e+00 3.311856e-05 -1.260094e-12 -1.772989e-05 3.311856e-05 1.102701e-02 -1.620447e-01 1.620778e-01
5.936000e+00 2.718759e-05 -1.907654e-12 -3.651062e-05 2.718759e-05 1.102206e-02 2.709296e-01 -2.709024e-01
5.940000e+00 2.182014e-05 1.294785e-13 -8.120065e-06 2.182014e-05 1.101749e-02 1.079272e-01 -1.079053e-01
5.944000e+00 1.965220e-05 2.009397e-12 2.960089e-05 1.965220e-05 1.101600e-02 5.270651e-02 -5.268686e-02
5.948000e+00 2.940511e-05 1.127670e-12 2.664578e-05 2.940511e-05 1.102658e-02 -1.058397e-01 1.058691e-01
5.952000e+00 3.067473e-05 -1.266598e-12 -1.705681e-05 3.067473e-05 1.102889e-02 -2.286767e-01 2.287074e-01
5.956000e+00 2.998528e-05 -1.895408e-12 -3.554854e-05 2.998528e-05 1.102927e-02 3.186601e-01 -3.186301e-01
5.960000e+00 2.416403e-05 1.101443e-13 -6.561689e-06 2.416403e-05 1.102442e-02 1.588540e-01 -1.588298e-01
5.964000e+00 2.045603e-05 1.962298e-12 3.080906e-05 2.045604e-05 1.102153e-02 4.547640e-03 -4.527184e-03
5.968000e+00 1.951718e-05 1.103043e-12 2.718219e-05 1.951718e-05 1.102134e-02 -1.445852e-01 1.446047e-01
5.972000e+00 2.010220e-05 -1.267684e-12 -1.408353e-05 2.010220e-05 1.102268e-02 -2.572685e-01 2.572886e-01
5.976000e+00 1.929841e-05 -1.881633e-12 -3.589320e-05 1.929841e-05 1.102264e-02 3.393216e-01 -3.393023e-01
5.980000e+00 2.052445e-05 1.071940e-13 -7.082806e-06 2.052445e-05 1.102465e-02 1.809294e-01 -1.809088e-01
5.984000e+00 1.802062e-05 1.975273e-12 3.103797e-05 1.802062e-05 1.102292e-02 -9.103226e-02 9.105028e-02
5.988000e+00 1.082907e-05 1.149186e-12 2.804462e-05 1.082907e-05 1.101634e-02 -1.320724e-01 1.320833e-01
5.992000e+00 8.645896e-06 -1.238264e-12 -1.584020e-05 8.645895e-06 1.101461e-02 -2.502438e-01 2.502525e-01
5.996000e+00 1.290965e-05 -1.896211e-12 -3.565081e-05 1.290965e-05 1.101937e-02 3.366508e-01 -3.366379e-01
6.000000e+00 1.989575e-05 1.019964e-13 -4.846102e-06 1.989575e-05 1.102706e-02 1.754841e-01 -1.754642e-01
6.004000e+00 1.599513e-05 2.017051e-12 3.189453e-05 1.599513e-05 1.102393e-02 -9.175638e-03 9.191633e-03
6.008000e+00 1.969658e-05 1.180368e-12 3.106922e-05 1.969658e-05 1.102841e-02 -1.568507e-01 1.568704e-01
6.012000e+00 1.913120e-05 -1.219140e-12 -1.415584e-05 1.913120e-05 1.102869e-02 -2.685592e-01 2.685783e-01
6.016000e+00 1.703113e-05 -1.889158e-12 -3.785151e-05 1.703113e-05 1.102740e-02 3.498892e-01 -3.498722e-01
6.020000e+00 1.404048e-05 9.169901e-14 -1.065946e-05 1.404048e-05 1.102514e-02 1.897190e-01 -1.897050e-01
6.024000e+00 8.070507e-06 1.979629e-12 2.752266e-05 8.070509e-06 1.101975e-02 -2.272547e-02 2.273354e-02
6.028000e+00 7.982888e-06 1.145794e-12 2.846403e-05 7.982889e-06 1.102014e-02 -1.677768e-01 1.677848e-01
6.032000e+00 1.908282e-05 -1.241376e-12 -1.031187e-05 1.908282e-05 1.103192e-02 -2.767650e-01 2.767840e-01
6.036000e+00 1.886834e-05 -1.854000e-12 -3.500573e-05 1.886834e-05 1.103259e-02 3.559876e-01 -3.559687e-01
6.040000e+00 1.713728e-05 1.333460e-13 -1.100028e-05 1.713728e-05 1.103172e-02 1.960716e-01 -1.960544e-01
6.044000e+00 9.983907e-06 1.974873e-12 2.532987e-05 9.983909e-06 1.102528e-02 -2.851136e-02 2.852135e-02
6.048000e+00 1.020683e-05 1.107939e-12 2.746426e-05 1.020683e-05 1.102610e-02 -1.726157e-01 1.726259e-01
6.052000e+00 1.295910e-05 -1.258202e-12 -1.400430e-05 1.295910e-05 1.102951e-02 -2.805831e-01 2.805960e-01
6.056000e+00 1.311225e-05 -1.871307e-12 -3.696606e-05 1.311224e-05 1.103038e-02 3.589675e-01 -3.589544e-01
6.060000e+00 7.534582e-06 1.039872e-13 -1.289076e-05 7.534582e-06 1.102543e-02 1.989645e-01 -1.989570e-01
6.064000e+00 9.505690e-06 1.914731e-12 2.459661e-05 9.505692e-06 1.102797e-02 -1.004469e-01 1.004564e-01
6.068000e+00 1.226576e-05 1.077848e-12 2.709715e-05 1.226576e-05 1.103139e-02 -1.484047e-01 1.484169e-01
6.072000e+00 2.086514e-05 -1.236961e-12 -9.826856e-06 2.086514e-05 1.104086e-02 -2.644871e-01 2.645080e-01
6.076000e+00 1.403319e-05 -1.815480e-12 -3.691276e-05 1.403319e-05 1.103494e-02 3.491708e-01 -3.491568e-01
6.080000e+00 9.758643e-06 1.052386e-13 -1.017430e-05 9.758644e-06 1.103139e-02 1.860797e-01 -1.860699e-01
6.084000e+00 1.288718e-05 1.894589e-12 3.100457e-05 1.288718e-05 1.103523e-02 8.341394e-02 -8.340105e-02
6.088000e+00 1.472920e-05 1.119946e-12 3.365875e-05 1.472920e-05 1.103788e-02 1.338845e-01 -1.338698e-01
6.092000e+00 1.766795e-05 -1.130228e-12 -6.929460e-06 1.766795e-05 1.104172e-02 -4.079120e-02 4.080887e-02
6.096000e+00 1.724058e-05 -1.742143e-12 -3.295580e-05 1.724058e-05 1.104225e-02 1.823182e-01 -1.823010e-01
6.100000e+00 1.908643e-05 1.286764e-13 -1.156200e-05 1.908643e-05 1.104509e-02 1.491703e-02 -1.489794e-02
6.104000e+00 1.381294e-05 1.902863e-12 2.735332e-05 1.381294e-05 1.104076e-02 -7.115566e-02 7.116948e-02
6.108000e+00 1.273243e-05 1.113343e-12 2.813353e-05 1.273243e-05 1.104052e-02 2.675924e-01 -2.675797e-01
6.112000e+00 1.531671e-05 -1.158353e-12 -1.468127e-05 1.531671e-05 1.104398e-02 7.901700e-02 -7.900168e-02
6.116000e+00 1.492292e-05 -1.792159e-12 -3.670123e-05 1.492292e-05 1.104451e-02 8.615227e-02 -8.613735e-02
6.120000e+00 1.448513e-05 8.272189e-14 -1.165566e-05 1.448513e-05 1.104499e-02 -7.378169e-02 7.379618e-02
6.124000e+00 1.396397e-05 1.875653e-12 2.881850e-05 1.396397e-05 1.104538e-02 -8.285701e-01 8.285841e-01
6.128000e+00 1.916143e-05 1.114876e-12 3.508088e-05 1.916143e-05 1.105158e-02 2.141695e-01 -2.141504e-01
6.132000e+00 1.901636e-05 -1.112680e-12 -7.323049e-06 1.901636e-05 1.105254e-02 3.125820e-02 -3.123918e-02
6.136000e+00 1.532931e-05 -1.746364e-12 -3.053421e-05 1.532931e-05 1.104990e-02 1.240016e-01 -1.239863e-01
6.140000e+00 1.166268e-05 1.003774e-13 -9.872449e-06 1.166268e-05 1.104716e-02 -3.899196e-02 3.900362e-02
6.144000e+00 1.212509e-05 1.870915e-12 2.481709e-05 1.212510e-05 1.104850e-02 1.128292e-01 -1.128171e-01
6.148000e+00 1.682645e-05 1.125873e-12 2.933132e-05 1.682645e-05 1.105418e-02 3.180124e-02 -3.178442e-02
6.152000e+00 1.818117e-05 -1.087939e-12 -1.169472e-05 1.818117e-05 1.105663e-02 -1.241694e-01 1.241876e-01
6.156000e+00 1.239401e-05 -1.748787e-12 -3.857785e-05 1.239401e-05 1.105187e-02 2.429864e-01 -2.429740e-01
6.160000e+00 1.417866e-06 1.735568e-14 -1.289619e-05 1.417866e-06 1.104163e-02 7.791549e-02 -7.791407e-02
6.164000e+00 5.795827e-06 1.741280e-12 2.595749e-05 5.795829e-06 1.104663e-02 -8.321212e-02 8.321792e-02
6.168000e+00 1.327809e-05 1.067642e-12 2.789483e-05 1.327809e-05 1.105495e-02 2.234863e-01 -2.234730e-01
6.172000e+00 1.802605e-05 -1.051749e-12 -1.176129e-05 1.802605e-05 1.106076e-02 3.744649e-02 -3.742846e-02
6.176000e+00 1.405901e-05 -1.694218e-12 -3.651323e-05 1.405901e-05 1.105788e-02 1.186862e-01 -1.186721e-01
6.180000e+00 1.125381e-05 8.790702e-15 -9.166335e-06 1.125381e-05 1.105605e-02 -4.326981e-02 4.328107e-02
6.184000e+00 1.080948e-05 1.716227e-12 2.993016e-05 1.080948e-05 1.105653e-02 1.891802e-01 -1.891693e-01
6.188000e+00 1.085429e-05 1.085161e-12 3.102125e-05 1.085429e-05 1.105750e-02 6.985133e-03 -6.974279e-03
6.192000e+00 1.229612e-05 -9.978360e-13 -7.221937e-06 1.229612e-05 1.105990e-02 -1.406569e-01 1.406692e-01
6.196000e+00 1.061500e-05 -1.649616e-12 -3.223142e-05 1.061499e-05 1.105918e-02 2.504568e-01 -2.504462e-01
6.200000e+00 8.278751e-06 2.340397e-14 -9.802657e-06 8.278751e-06 1.105774e-02 9.040315e-02 -9.039487e-02
6.204000e+00 1.096957e-05 1.706814e-12 2.737017e-05 1.096957e-05 1.106134e-02 -6.845382e-02 6.846479e-02
6.208000e+00 8.697747e-06 1.094319e-12 3.457488e-05 8.697748e-06 1.105999e-02 2.098366e-01 -2.098279e-01
6.212000e+00 7.353477e-06 -9.598762e-13 -6.254360e-06 7.353476e-06 1.105951e-02 2.473686e-02 -2.472951e-02
6.216000e+00 3.458705e-06 -1.641258e-12 -3.562438e-05 3.458704e-06 1.105639e-02 1.250308e-01 -1.250273e-01
6.220000e+00 3.185452e-06 -3.010903e-14 -1.446033e-05 3.185452e-06 1.105682e-02 -3.242836e-02 3.243155e-02
6.224000e+00 8.959658e-07 1.655812e-12 2.541593e-05 8.959675e-07 1.105519e-02 -7.851425e-01 7.851434e-01
6.228000e+00 9.942093e-07 1.079786e-12 2.890503e-05 9.942104e-07 1.105591e-02 1.849028e-01 -1.849018e-01
6.232000e+00 1.225644e-06 -9.704455e-13 -1.068414e-05 1.225643e-06 1.105677e-02 4.871631e-03 -4.870406e-03
6.236000e+00 -2.981796e-06 -1.684185e-12 -3.456032e-05 -2.981797e-06 1.105312e-02 1.408865e-01 -1.408895e-01
6.240000e+00 -2.884912e-06 -9.048724e-14 -1.169574e-05 -2.884912e-06 1.105370e-02 -1.845007e-02 1.844719e-02
6.244000e+00 -9.549034e-06 1.613810e-12 2.338821e-05 -9.549032e-06 1.104740e-02 5.219588e-02 -5.220543e-02
6.248000e+00 -7.898545e-06 1.045780e-12 2.616202e-05 -7.898544e-06 1.104932e-02 3.029236e-02 -3.030026e-02
6.252000e+00 -8.689192e-07 -9.951227e-13 -1.032012e-05 -8.689202e-07 1.105677e-02 -1.227982e-01 1.227973e-01
6.256000e+00 -9.241664e-06 -1.683067e-12 -3.533886e-05 -9.241666e-06 1.104879e-02 2.380199e-01 -2.380292e-01
6.260000e+00 -2.884061e-05 -1.155023e-13 -1.283044e-05 -2.884061e-05 1.102908e-02 7.662479e-02 -7.665363e-02
6.264000e+00 -3.588911e-05 1.487035e-12 2.512327e-05 -3.588910e-05 1.102143e-02 5.118675e-01 -5.119034e-01
6.268000e+00 -4.469300e-05 9.115497e-13 2.744150e-05 -4.469300e-05 1.101172e-02 -2.155494e-02 2.151025e-02
6.272000e+00 -3.842607e-05 -1.066674e-12 -1.140111e-05 -3.842607e-05 1.101701e-02 -1.627605e-01 1.627221e-01
6.276000e+00 -2.932758e-05 -1.695526e-12 -3.608467e-05 -2.932758e-05 1.102538e-02 2.684132e-01 -2.684425e-01
6.280000e+00 -4.646468e-05 -8.778789e-14 -1.124879e-05 -4.646468e-05 1.100735e-02 1.068156e-01 -1.068621e-01
6.284000e+00 -7.605970e-05 1.486867e-12 2.986236e-05 -7.605970e-05 1.097600e-02 -5.462851e-02 5.455245e-02
6.288000e+00 -8.346236e-05 7.932340e-13 3.297216e-05 -8.346236e-05 1.096614e-02 1.998082e-01 -1.998917e-01
6.292000e+00 -8.634977e-05 -1.190155e-12 -9.957055e-06 -8.634977e-05 1.096056e-02 1.678005e-02 -1.686640e-02
6.296000e+00 -8.582201e-05 -1.731959e-12 -3.734079e-05 -8.582201e-05 1.095830e-02 1.310983e-01 -1.311841e-01
6.300000e+00 -7.458049e-05 -7.205044e-14 -1.324435e-05 -7.458049e-05 1.096691e-02 -2.831423e-02 2.823964e-02
6.304000e+00 -4.933291e-05 1.539306e-12 2.777793e-05 -4.933291e-05 1.099013e-02 -3.814456e-02 3.809523e-02
6.308000e+00 -3.357133e-05 9.458146e-13 2.888452e-05 -3.357133e-05 1.100456e-02 2.918322e-01 -2.918658e-01
6.312000e+00 -3.010787e-05 -1.014585e-12 -1.100526e-05 -3.010787e-05 1.100701e-02 1.034411e-01 -1.034712e-01
6.316000e+00 -3.137432e-05 -1.643405e-12 -3.519620e-05 -3.137433e-05 1.100475e-02 5.434298e-02 -5.437435e-02
6.320000e+00 -2.633826e-05 -8.678361e-14 -1.139056e-05 -2.633826e-05 1.100884e-02 -9.021241e-02 9.018607e-02
6.324000e+00 -1.759161e-05 1.515420e-12 2.812045e-05 -1.759161e-05 1.101687e-02 -1.881421e-01 1.881245e-01
6.328000e+00 -9.384654e-06 9.713148e-13 2.863285e-05 -9.384653e-06 1.102465e-02 3.117604e-01 -3.117698e-01
6.332000e+00 1.812380e-06 -9.550551e-13 -8.037927e-06 1.812379e-06 1.103576e-02 1.272681e-01 -1.272663e-01
6.336000e+00 1.290275e-05 -1.575328e-12 -3.319000e-05 1.290275e-05 1.104716e-02 2.470910e-02 -2.469620e-02
6.340000e+00 2.859788e-05 -8.377355e-15 -1.241866e-05 2.859788e-05 1.106365e-02 -1.049354e-01 1.049640e-01
6.344000e+00 2.912878e-05 1.629366e-12 2.739484e-05 2.912878e-05 1.106528e-02 -5.632300e-01 5.632591e-01
6.348000e+00 3.161758e-05 1.077820e-12 2.976711e-05 3.161758e-05 1.106894e-02 2.240793e-01 -2.240477e-01
6.352000e+00 3.904929e-05 -8.867660e-13 -9.523224e-06 3.904929e-05 1.107774e-02 6.038202e-02 -6.034297e-02
6.356000e+00 3.858331e-05 -1.538821e-12 -3.538496e-05 3.858331e-05 1.107879e-02 6.884478e-02 -6.880619e-02
6.360000e+00 3.377752e-05 9.291493e-15 -1.564002e-05 3.377752e-05 1.107543e-02 -5.697413e-02 5.700790e-02
6.364000e+00 3.775449e-05 1.602402e-12 2.696836e-05 3.775450e-05 1.108086e-02 4.923267e-02 -4.919492e-02
6.368000e+00 3.396437e-05 1.067538e-12 3.168447e-05 3.396437e-05 1.107855e-02 2.367400e-01 -2.367060e-01
6.372000e+00 3.066978e-05 -8.769253e-13 -1.222320e-05 3.066978e-05 1.107663e-02 9.689245e-02 -9.686178e-02
6.376000e+00 2.765693e-05 -1.570353e-12 -3.892468e-05 2.765692e-05 1.107490e-02 1.574544e-02 -1.571778e-02
6.380000e+00 2.090135e-05 -5.921219e-14 -1.591425e-05 2.090135e-05 1.106927e-02 -8.325616e-02 8.327706e-02
6.384000e+00 2.595065e-05 1.551892e-12 2.678231e-05 2.595065e-05 1.107543e-02 1.593124e-01 -1.592865e-01
6.388000e+00 1.965834e-05 1.064295e-12 3.140958e-05 1.965834e-05 1.107024e-02 5.053221e-02 -5.051255e-02
6.392000e+00 1.828812e-05 -8.666497e-13 -9.446766e-06 1.828812e-05 1.106985e-02 -4.326303e-02 4.328132e-02
6.396000e+00 1.323159e-05 -1.570666e-12 -3.600832e-05 1.323159e-05 1.106567e-02 1.279024e-01 -1.278892e-01
6.400000e+00 -1.844628e-05 -7.404920e-14 -9.716638e-06 -1.844628e-05 1.103422e-02 1.289401e-02 -1.291246e-02
6.404000e+00 -7.158215e-05 1.484353e-12 2.891291e-05 -7.158214e-05 1.097979e-02 -8.596440e-02 8.589281e-02
6.408000e+00 -9.683448e-05 8.155096e-13 3.154129e-05 -9.683448e-05 1.095181e-02 1.616389e-01 -1.617357e-01
6.412000e+00 -7.159208e-05 -1.170763e-12 -6.980630e-06 -7.159208e-05 1.097427e-02 5.186667e-02 -5.193826e-02
6.416000e+00 -9.433240e-05 -1.625688e-12 -3.525713e-05 -9.433240e-05 1.094874e-02 4.219314e-02 -4.228748e-02
6.420000e+00 -2.001153e-04 -2.578932e-14 -1.519860e-05 -2.001153e-04 1.083781e-02 -5.402079e-02 5.382068e-02
6.424000e+00 -3.268269e-04 1.101304e-12 2.084374e-05 -3.268269e-04 1.070169e-02 1.434196e-01 -1.437465e-01
6.428000e+00 -3.857040e-04 -1.133259e-13 2.514949e-05 -3.857040e-04 1.062991e-02 1.574002e-01 -1.577859e-01
6.432000e+00 -2.152865e-04 -2.064363e-12 -8.635074e-06 -2.152865e-04 1.078920e-02 8.887516e-02 -8.909045e-02
6.436000e+00 8.421577e-05 -1.476127e-12 -2.831220e-05 8.421577e-05 1.108581e-02 -1.488363e-02 1.496785e-02
6.440000e+00 2.630129e-04 1.611866e-12 -4.406945e-06 2.630129e-04 1.127025e-02 -8.073905e-02 8.100206e-02
6.444000e+00 2.841155e-04 3.222480e-12 3.258703e-05 2.841155e-04 1.130069e-02 1.146321e-01 -1.143480e-01
6.448000e+00 2.807777e-04 1.058681e-12 3.459736e-05 2.807777e-04 1.130718e-02 6.412258e-02 -6.384180e-02
6.452000e+00 3.342526e-04 -1.881841e-12 -6.894564e-06 3.342526e-04 1.137156e-02 -1.384119e-03 1.718372e-03
6.456000e+00 3.310020e-04 -1.368379e-12 -3.585093e-05 3.310020e-04 1.138031e-02 7.498886e-02 -7.465786e-02
6.460000e+00 2.719684e-04 1.820133e-12 -1.583217e-05 2.719684e-04 1.133237e-02 -1.877884e-02 1.905080e-02
6.464000e+00 1.869664e-04 3.080301e-12 2.001422e-05 1.869664e-04 1.125607e-02 -8.861780e-02 8.880476e-02
6.468000e+00 1.304177e-04 4.254548e-13 2.571484e-05 1.304177e-04 1.120583e-02 1.274079e-01 -1.272775e-01
6.472000e+00 8.076367e-05 -2.602475e-12 -1.927625e-05 8.076367e-05 1.116068e-02 6.649255e-02 -6.641179e-02
6.476000e+00 4.488583e-05 -1.963635e-12 -3.440542e-05 4.488583e-05 1.112784e-02 3.828804e-03 -3.783918e-03
6.480000e+00 2.005733e-05 1.391737e-12 -2.280087e-06 2.005733e-05 1.110500e-02 -6.570992e-02 6.572998e-02
6.484000e+00 -1.067605e-05 2.784740e-12 3.509118e-05 -1.067605e-05 1.107528e-02 1.036114e-01 -1.036221e-01
6.488000e+00 -3.021063e-05 2.340841e-13 3.324604e-05 -3.021063e-05 1.105586e-02 5.182042e-02 -5.185063e-02
