1.335830999999999950e-05
1.199463000000000073e-05
9.315975000000000197e-06
1.036358999999999948e-05
1.447056000000000058e-05
1.299629999999999956e-05
1.160111000000000047e-05
1.267676999999999992e-05
1.701499999999999888e-05
1.880274000000000152e-05
1.460564999999999966e-05
1.600962999999999871e-05
1.834642999999999978e-05
1.928853999999999947e-05
1.594351999999999876e-05
1.416410000000000047e-05
1.235891999999999923e-05
1.536750999999999883e-05
1.345219000000000071e-05
1.262454999999999926e-05
1.049243000000000010e-05
1.180511000000000055e-05
1.268726000000000023e-05
1.078855999999999924e-05
1.074971000000000046e-05
1.146908000000000031e-05
7.280051000000000104e-06
9.241058000000000453e-06
9.355994999999999519e-06
8.623918999999999178e-06
6.071716000000000263e-06
5.618135000000000378e-06
5.650048999999999985e-06
9.530956000000000367e-06
9.719919999999999596e-06
8.488252999999999451e-06
1.209673999999999999e-05
1.622409999999999938e-05
1.256148999999999923e-05
1.222521000000000013e-05
1.551169999999999922e-05
9.503471000000000409e-06
1.006816000000000018e-05
9.285808000000000321e-06
8.010539000000000656e-06
3.745166000000000066e-06
3.572930999999999927e-06
1.651595000000000066e-06
1.010813000000000066e-06
8.463812000000000509e-07
2.441926999999999973e-06
2.393990999999999827e-06
3.101704999999999808e-06
3.048385000000000122e-06
5.886377999999999904e-06
5.319029000000000400e-06
2.404474999999999963e-06
3.506990000000000197e-06
2.161718000000000061e-06
5.212895000000000172e-07
3.902637000000000087e-06
7.438519000000000329e-06
4.082776000000000295e-06
1.927602999999999847e-06
-1.592708000000000024e-06
3.057759999999999926e-06
1.793232999999999895e-06
1.449311999999999948e-06
3.281949000000000161e-06
7.457287000000000011e-06
-8.084783999999999638e-07
3.470510000000000019e-07
1.521292999999999963e-06
-2.074139000000000200e-06
-9.009899000000000521e-06
-7.295764999999999764e-06
-4.195166999999999809e-06
-5.500911999999999621e-06
-8.949841000000000765e-06
-7.058906000000000039e-06
-8.161201999999999522e-06
-8.477385000000000150e-06
-7.490627999999999833e-06
-7.136617000000000251e-06
-8.820608000000000100e-06
-6.988176999999999856e-06
-4.360048999999999631e-06
-4.143335999999999932e-06
-3.555544000000000038e-06
-5.808888000000000075e-06
-5.209615000000000265e-06
-9.153348999999999969e-06
-4.351792999999999586e-06
3.299264999999999997e-07
5.192075999999999991e-06
2.362439000000000049e-06
5.439189000000000491e-07
-1.030908999999999984e-06
-6.188192000000000094e-06
-9.053221000000000781e-06
-5.129368999999999746e-06
-9.819903000000000499e-06
-9.282522999999999217e-06
-9.298576000000000400e-06
-7.099297000000000073e-06
-9.048736999999999826e-06
-9.576625000000000827e-06
-7.973705999999999310e-06
-3.963932000000000319e-06
-5.528321000000000022e-06
-9.181761000000000740e-06
-5.498473000000000270e-06
-5.638835000000000028e-06
-2.756864000000000088e-06
-2.184943999999999981e-06
-9.197654000000000259e-08
-6.070655000000000410e-06
-4.434934999999999577e-06
-2.848375999999999882e-06
-2.047775999999999874e-06
-5.493171000000000028e-06
-4.780950999999999756e-06
-9.046572000000000839e-06
-1.063856000000000068e-05
-1.038094000000000026e-05
-8.127198000000000245e-06
-1.208951999999999975e-05
-1.087537999999999954e-05
-8.237787999999999808e-06
-1.075622999999999917e-05
-9.995119000000000551e-06
-7.986511000000000621e-06
-4.039350999999999944e-06
-5.719047000000000032e-06
-7.939507999999999337e-06
-8.106838000000000664e-06
-5.770275999999999808e-06
-8.639063000000000468e-06
-5.987661000000000269e-06
-6.712336000000000238e-06
-4.699669999999999678e-06
-6.743257000000000175e-06
-5.863831000000000304e-06
-5.524536999999999754e-06
-4.319460999999999876e-06
-6.338936999999999953e-06
-1.572971000000000063e-06
-3.988125000000000039e-06
-7.738127000000000189e-06
-1.120604999999999921e-05
-7.820066000000000219e-06
-8.232976999999999356e-06
-7.689357000000000315e-06
-6.763697999999999663e-06
-6.266343999999999986e-06
-5.920836000000000278e-06
-8.195424000000000158e-06
-7.187571000000000271e-06
-5.307274999999999936e-06
-3.801980000000000062e-06
-6.644219000000000158e-06
-3.256951999999999848e-06
-5.455255000000000339e-06
-2.700617999999999890e-07
9.856518999999999455e-07
4.919631000000000095e-06
3.193966999999999976e-06
5.332589000000000318e-06
6.072130999999999648e-06
5.790396999999999781e-06
7.244932999999999511e-07
3.356987999999999884e-06
1.626366999999999994e-07
1.941736999999999992e-07
-5.718082000000000314e-08
2.287463999999999975e-06
-6.601999000000000036e-07
-1.133005999999999948e-06
3.179512999999999944e-06
3.947088999999999776e-06
2.253521000000000053e-06
4.140386000000000240e-06
2.197926999999999853e-06
-4.691121999999999832e-07
-2.346745000000000094e-06
-2.596422000000000007e-06
4.553004999999999787e-06
-5.348234000000000191e-07
3.090460000000000054e-06
6.284486999999999992e-06
7.617082000000000232e-06
6.646046000000000404e-06
7.433568000000000247e-06
6.772221000000000089e-06
6.860559999999999753e-06
1.187615000000000063e-06
5.529812000000000309e-06
7.007945000000000037e-06
5.126899999999999990e-06
4.257605000000000040e-06
5.334040000000000348e-06
2.050472000000000178e-06
8.769261999999999846e-07
1.965604999999999792e-06
2.043764000000000089e-06
1.585959000000000073e-06
-5.362060000000000039e-07
3.078747999999999902e-06
1.075014000000000047e-06
-1.783835000000000091e-06
-3.404977000000000010e-06
-3.134540999999999878e-06
-5.373032000000000093e-06
-9.233831999999999618e-07
-2.556789000000000145e-06
-6.533143000000000521e-07
9.893756000000000095e-07
4.817105000000000358e-06
3.332906999999999869e-06
2.385439000000000083e-06
-7.930823999999999760e-07
3.851949000000000103e-07
1.665924000000000088e-07
1.363305000000000070e-06
7.678013000000000369e-07
-9.463427999999999817e-07
-4.429467999999999652e-06
-6.990610000000000312e-06
-4.687691999999999807e-06
-3.542187999999999822e-06
-2.824423999999999828e-06
-1.762279999999999922e-06
-1.068531000000000028e-06
-3.155261000000000079e-06
-1.415587999999999930e-06
-4.722788999999999820e-06
-3.304179999999999932e-06
-5.680558999999999800e-06
-3.369714000000000074e-06
-4.436039999999999798e-06
1.125716999999999915e-06
-2.245814999999999944e-06
-8.855603999999999654e-07
6.754500999999999690e-07
2.660839999999999837e-06
-7.369304999999999826e-07
1.909854000000000129e-06
7.318819000000000230e-07
-7.865824999999999563e-07
-1.931157999999999934e-06
-3.150082999999999872e-06
-6.102050999999999694e-06
-7.294758000000000131e-06
-9.056734000000000556e-06
-7.587305999999999926e-06
-9.439351000000000759e-06
-8.578506000000000702e-06
-6.358646000000000411e-06
-7.979126000000000691e-06
-5.012163999999999908e-06
-6.902620000000000329e-06
-4.929267000000000116e-06
-7.095416000000000304e-06
-3.936329000000000069e-06
-3.779998999999999992e-06
-3.301160999999999817e-06
-3.661927999999999967e-06
2.136217000000000023e-07
8.164763999999999802e-07
5.560385999999999985e-07
-5.854582999999999770e-07
1.737784999999999914e-06
1.591404000000000027e-06
2.293870000000000198e-06
3.931553999999999763e-06
3.116714999999999940e-06
9.868944999999999834e-07
-7.510973000000000483e-07
2.597949999999999834e-06
1.770610999999999919e-06
-3.488768000000000234e-07
-2.325085000000000203e-06
9.879429999999999415e-08
-6.270192000000000326e-06
-1.246507000000000033e-06
-2.026442999999999903e-06
1.765120000000000125e-07
-1.843894000000000086e-06
1.249179999999999914e-06
-1.440383999999999989e-06
-8.518816000000000093e-07
5.034976000000000047e-07
3.823269999999999903e-06
4.083438999999999750e-06
6.382234000000000159e-06
3.454760999999999922e-06
6.714612000000000384e-06
3.348227999999999904e-06
1.511280999999999939e-06
5.828445999999999965e-06
3.636703999999999952e-06
2.741131999999999931e-06
2.986827000000000041e-06
4.054895999999999810e-06
3.154994000000000120e-06
2.939247999999999798e-06
1.964916000000000043e-06
2.969514000000000077e-06
8.408720999999999794e-07
-3.409253999999999857e-08
-2.107753999999999962e-06
-2.158369000000000102e-07
-6.299768000000000193e-06
2.581942000000000105e-06
3.758549000000000074e-07
2.374531999999999918e-06
-3.290332999999999927e-06
4.319108000000000085e-06
3.493843999999999849e-06
5.522631000000000081e-06
3.599847000000000061e-06
2.577462000000000108e-06
4.054304000000000409e-06
4.764820999999999624e-06
2.414524000000000161e-06
-2.546702999999999984e-06
-5.819441999999999602e-06
-4.769558000000000151e-06
2.937655999999999898e-06
3.717844999999999977e-06
2.515685000000000123e-06
3.115143999999999985e-06
3.994018000000000289e-06
-3.605711000000000145e-06
-4.997622000000000412e-06
-5.403349000000000297e-06
-4.383556999999999711e-06
-8.707014999999999170e-06
-6.065881999999999736e-06
-4.590578000000000384e-06
-5.924724000000000028e-06
-6.534078999999999888e-06
-1.064667000000000093e-06
-3.169669000000000111e-06
-3.131270999999999823e-06
-4.484615999999999822e-06
4.024607000000000166e-07
6.305884000000000034e-07
-1.640170000000000002e-06
-1.986226999999999830e-06
7.310323000000000337e-07
-1.175202000000000044e-06
-5.563052999999999912e-06
-3.076330000000000072e-06
-4.263693000000000379e-06
-7.637342999999999834e-06
-7.014808000000000381e-06
-2.939613000000000238e-07
-2.604038000000000173e-06
-2.663407000000000180e-06
-2.810389000000000139e-06
-7.074620000000000122e-07
-2.949848999999999986e-06
4.620475000000000007e-06
3.696031000000000070e-06
2.614188999999999799e-06
-1.529608999999999969e-06
3.703922999999999808e-06
1.184159999999999984e-06
5.788387000000000228e-08
4.968509999999999801e-07
2.074349000000000068e-06
6.789520999999999695e-07
2.978764000000000031e-06
4.170148999999999975e-06
9.524306000000000185e-07
-7.898838000000000495e-07
-2.280053999999999990e-06
9.652272999999999679e-08
-2.438451000000000161e-06
-3.664828999999999788e-06
-2.830039999999999843e-06
-1.318413999999999910e-06
-4.519311000000000174e-06
1.154719000000000031e-06
-4.559826999999999846e-07
-1.292384999999999909e-06
-6.252678999999999923e-07
4.666465000000000222e-06
5.443064999999999698e-06
5.682451999999999749e-07
-3.944331999999999694e-06
4.351944000000000155e-06
5.430940999999999609e-06
6.479758000000000311e-06
1.166347000000000066e-05
9.866424999999999306e-06
7.378598000000000332e-06
1.135166999999999969e-05
1.413330000000000070e-05
1.313076999999999930e-05
1.070576000000000065e-05
6.513570000000000217e-06
1.087932999999999973e-05
8.181245999999999698e-06
6.034871000000000279e-06
4.374242999999999685e-06
6.443967999999999592e-06
2.596976999999999869e-06
5.817462000000000003e-06
6.442337999999999914e-06
8.286120999999999266e-06
3.959378000000000397e-06
4.467302000000000042e-06
3.011089000000000183e-06
4.518611999999999725e-06
4.313036000000000188e-06
8.308910000000000040e-06
6.724130000000000112e-06
8.926288999999999470e-06
1.224989000000000038e-05
1.092095999999999987e-05
8.231312999999999163e-06
7.076193000000000133e-06
1.037496999999999936e-05
6.216406000000000058e-06
8.124374000000000220e-06
9.010139999999999762e-06
1.121406999999999951e-05
4.782849000000000055e-06
4.203344999999999818e-06
2.250595999999999992e-06
2.536735999999999932e-06
-1.413847999999999969e-06
1.988259999999999832e-06
1.685163000000000013e-06
1.137369000000000104e-06
-4.331288000000000026e-06
3.796674999999999949e-07
-5.866439999999999689e-07
-3.317127000000000081e-06
-6.152108000000000153e-06
-1.299958000000000105e-07
-2.175356000000000014e-06
-1.196299000000000064e-06
6.677140999999999849e-07
3.359944999999999981e-06
2.116485000000000201e-06
1.563682000000000092e-06
2.578658999999999903e-06
1.913030000000000131e-06
1.537009000000000102e-06
2.744553999999999947e-06
4.470225000000000048e-06
-1.588990000000000096e-06
-2.982871999999999924e-06
-3.794195999999999917e-06
-4.537147999999999779e-06
-8.101505000000000625e-06
-3.597634000000000172e-06
-4.202194999999999837e-06
-7.014764000000000013e-06
-1.043313000000000051e-05
-1.193087999999999943e-06
-5.098051999999999890e-06
-1.179748000000000042e-05
-2.515750000000000096e-05
-1.914527999999999976e-05
-5.887399999999999739e-06
9.708388999999999994e-06
1.440680000000000071e-05
1.661919000000000105e-05
5.990131000000000264e-06
-4.306067000000000094e-07
2.867606999999999851e-06
1.746000000000000097e-06
-7.430376999999999832e-07
-5.119704999999999799e-06
5.155156000000000267e-07
1.181425000000000085e-06
-2.765235000000000131e-06
-8.548719999999999697e-06
-4.665843000000000417e-06
-3.551591999999999792e-06
-5.279059000000000340e-06
-4.672198000000000291e-06
-2.825996000000000022e-06
-8.567085999999999717e-06
-6.029145000000000192e-06
-9.719465999999999346e-06
-7.552277000000000096e-06
-5.366248000000000024e-06
-4.036497999999999753e-06
-7.232133000000000032e-06
-1.018908999999999971e-05
-6.184455000000000066e-06
2.836703999999999988e-06
4.091258999999999617e-06
-1.362718000000000066e-07
-3.702893999999999991e-06
-3.643191999999999897e-06
-4.612710999999999991e-06
-1.675209999999999839e-05
-2.336068000000000010e-05
-1.483511999999999934e-05
5.618471000000000336e-06
1.046415999999999944e-05
1.225040999999999949e-05
-2.670389000000000209e-06
-7.085065999999999632e-06
-7.797401000000000326e-06
6.908200999999999802e-07
-9.272309999999999998e-06
-1.773740000000000063e-05
-1.314433999999999992e-05
-4.732709000000000057e-06
-1.068449000000000009e-05
-8.391202000000000708e-06
-9.123471000000000024e-07
-6.573016999999999624e-07
6.443886999999999685e-06
8.100669000000000419e-06
6.655233000000000524e-07
-5.981896000000000164e-06
3.630085000000000043e-08
-4.064811999999999936e-06
-1.262473000000000000e-05
-1.520298000000000026e-05
-6.031361999999999768e-06
-7.787474999999999500e-06
-1.316508999999999968e-05
-1.582540999999999999e-05
-1.713680000000000167e-05
-2.536146000000000163e-05
-1.928880000000000072e-05
-1.307526999999999958e-05
-1.817198000000000012e-05
-2.260031999999999913e-05
-6.329320000000000245e-06
3.670761999999999872e-06
8.311919000000000302e-07
1.026965999999999986e-06
-7.354795999999999971e-07
-1.159431000000000081e-05
-7.460413000000000327e-06
1.992706999999999978e-06
-4.571900000000000222e-06
-1.204035000000000069e-05
-1.138324000000000081e-05
2.845102000000000140e-06
6.164930999999999844e-06
3.455227000000000080e-06
-2.052692000000000048e-06
-1.075400999999999972e-05
-2.202263000000000026e-05
-9.565491999999999929e-06
1.109313999999999998e-05
1.605374999999999855e-05
6.634676999999999768e-06
-9.544652000000000650e-06
-2.055234999999999983e-05
4.514089999999999838e-06
-1.589406999999999960e-06
-4.028617999999999923e-05
-4.353245000000000026e-05
8.049125999999999809e-07
2.902393000000000046e-05
4.108379000000000056e-05
2.267911999999999912e-05
1.068290999999999967e-06
-6.058977000000000350e-06
1.329401999999999982e-05
2.003997999999999985e-05
-1.466480999999999961e-06
-1.886812000000000122e-05
-1.342790000000000064e-05
1.536898000000000002e-05
4.022486000000000064e-06
-1.443593000000000054e-05
-1.832353000000000039e-05
-4.838145000000000076e-06
-7.814624999999999740e-06
-1.216577999999999993e-05
-1.313032000000000001e-05
4.643392999999999895e-07
-6.490335999999999653e-06
-1.975724000000000059e-05
-2.960495999999999920e-05
-1.260038999999999982e-05
8.748917000000000044e-06
8.937932999999999862e-06
1.054866000000000007e-05
2.492850000000000027e-05
1.661333999999999839e-05
1.521962999999999950e-05
4.076733000000000055e-05
4.209794999999999900e-05
3.261572000000000153e-05
2.572479000000000074e-05
2.373319000000000104e-05
1.845525999999999989e-05
2.064769000000000153e-05
1.796976999999999990e-05
1.608942000000000019e-05
1.270259000000000030e-05
9.821999000000000758e-06
5.969193000000000398e-06
1.986196000000000118e-05
1.581376999999999886e-05
2.291139000000000156e-05
1.424646000000000048e-05
1.596492000000000164e-05
1.650021999999999971e-05
8.359037999999999706e-06
4.981205999999999586e-06
2.516860000000000158e-06
6.398828000000000393e-06
1.662260999999999974e-05
3.008351999999999890e-05
3.486244999999999687e-05
2.671167999999999901e-05
2.593896000000000076e-05
3.396713999999999815e-05
3.961755000000000154e-05
3.694083999999999985e-05
2.281608999999999927e-05
2.607307000000000073e-05
3.132713000000000240e-05
3.796292999999999738e-05
2.674784000000000105e-05
1.874792999999999924e-05
1.704143999999999857e-05
2.254665999999999937e-05
2.649736999999999937e-05
2.462785999999999903e-05
2.018288999999999880e-05
2.665684999999999873e-05
2.556246999999999922e-05
3.085550000000000299e-05
3.504025000000000049e-05
3.161248000000000129e-05
1.838147999999999871e-05
1.361846999999999973e-05
1.816140999999999931e-05
2.159981000000000013e-05
1.874840000000000163e-05
8.597101000000000479e-06
-5.984420999999999983e-07
1.220049999999999949e-05
2.137301000000000088e-05
9.589251000000000797e-06
4.584017000000000330e-06
5.067629999999999963e-07
4.969082000000000344e-06
6.899728000000000120e-06
2.681103000000000002e-05
3.042612000000000135e-05
1.711407000000000062e-05
-4.882465999999999748e-06
5.055128000000000028e-06
-2.871446000000000155e-06
-1.120888999999999967e-05
1.434421999999999952e-06
1.262467999999999989e-05
-6.206816000000000037e-06
2.127120000000000058e-06
2.358873999999999940e-05
1.107104999999999965e-05
-2.574146000000000053e-06
-6.080924000000000328e-06
-5.495996000000000293e-06
-1.217514000000000080e-05
-1.719142000000000082e-05
-1.628457000000000119e-05
-1.224863000000000033e-05
-6.011201000000000386e-06
-1.387346999999999983e-05
-1.954149999999999916e-05
-1.449812999999999971e-05
-2.209345000000000105e-05
-1.269533000000000064e-05
-6.732175999999999865e-06
-1.336067999999999928e-05
-1.794286000000000120e-05
-1.331277000000000027e-05
-1.337746000000000083e-05
-1.502693999999999948e-05
-1.298401000000000039e-05
-8.402134000000000081e-06
-1.791502999999999913e-05
-3.768695999999999738e-05
-3.417944999999999680e-05
-2.514041000000000143e-05
-1.488660999999999976e-05
-9.402441000000000463e-06
-1.745810999999999877e-05
-2.376642000000000140e-05
-2.944327000000000109e-05
-2.187457000000000019e-05
-1.478448000000000079e-05
-2.342565000000000161e-05
-1.175987000000000028e-05
2.622329000000000029e-06
-2.500404999999999991e-05
-2.282737999999999963e-05
-3.988490000000000161e-06
-2.691291999999999914e-05
-3.284247000000000067e-05
-1.796224999999999900e-05
3.215343000000000074e-06
2.064803999999999891e-05
1.638919999999999887e-05
-8.640773999999999206e-06
-2.330524000000000118e-05
-3.278535000000000281e-05
-2.211868000000000081e-05
-1.816410999999999845e-05
-3.197102999999999805e-05
-2.681212999999999904e-05
-2.711106999999999994e-05
-3.540211999999999911e-05
-2.348696000000000120e-05
-3.665035000000000054e-05
-4.375366999999999879e-05
-2.946153999999999846e-05
1.328337000000000018e-05
2.843533000000000071e-05
8.217311000000000174e-06
-1.596598000000000125e-05
-3.410803000000000147e-05
-2.690873000000000079e-05
1.220908000000000000e-05
3.776842999999999780e-05
1.636686999999999870e-05
-2.049550999999999954e-06
-1.346238999999999936e-05
-9.304435999999999951e-07
3.378494999999999999e-06
-1.444264999999999969e-05
-2.035588999999999866e-05
-1.587925999999999948e-05
7.921005999999999586e-07
-3.193971000000000086e-06
-1.619535000000000072e-05
-2.239934000000000025e-05
-1.518957999999999967e-05
-2.831479000000000136e-05
-2.712704999999999975e-05
-1.326896000000000009e-05
-6.586938999999999582e-06
6.364162000000000207e-06
1.020879999999999914e-06
-2.850068999999999817e-06
7.365877999999999884e-06
1.016230999999999995e-05
2.343005999999999840e-05
1.844428000000000088e-05
2.983552999999999876e-06
2.241452999999999900e-05
3.069490000000000320e-05
1.033266000000000078e-05
-5.497482999999999623e-06
3.385875999999999818e-06
1.210609999999999917e-05
1.184187000000000052e-05
1.073329999999999937e-05
1.662142000000000035e-06
-1.233748999999999934e-05
-2.103418999999999859e-05
-1.128024000000000027e-05
4.152865999999999992e-06
-1.256531000000000049e-05
-2.818806000000000181e-06
1.212224000000000000e-05
-2.551892999999999929e-05
-2.594978999999999943e-05
1.345504999999999919e-05
1.107680000000000040e-05
1.785107000000000051e-05
1.566309999999999916e-05
-2.013110000000000111e-05
-2.005844000000000035e-05
-5.177055999999999583e-06
7.127770999999999590e-06
8.605437000000000191e-06
-3.975625999999999974e-06
-8.078035999999999716e-06
-1.213189999999999984e-05
1.929954000000000157e-06
5.917965000000000013e-06
4.509565000000000081e-06
2.684984000000000109e-06
-1.166964000000000030e-05
-2.038809000000000151e-05
-1.500942999999999937e-05
-6.957983000000000294e-06
2.273584000000000118e-06
2.600141999999999948e-05
1.064716999999999991e-05
-2.187604999999999869e-05
-1.855202999999999998e-05
-6.272280000000000364e-06
6.742578999999999671e-06
-7.300910999999999935e-06
-1.898673999999999840e-05
-1.228990999999999970e-05
-1.826913999999999997e-06
1.101500999999999942e-05
3.568871999999999904e-06
-2.091738999999999998e-05
-3.866267999999999691e-05
-2.538529999999999902e-05
-6.565416999999999689e-06
5.860694999999999925e-07
-2.715755000000000140e-06
3.674853000000000143e-07
-7.286882999999999804e-06
-4.237525999999999787e-05
-4.581871000000000300e-05
1.542117999999999928e-05
8.449403000000000661e-06
1.555663000000000152e-05
-8.460341999999999169e-06
-1.475723000000000033e-05
-3.845140000000000085e-06
-4.462996000000000188e-06
-6.642858999999999887e-06
-1.628293999999999898e-05
-2.663888999999999933e-05
-2.230007000000000145e-05
1.192868000000000011e-06
-1.702670000000000081e-05
-2.250522000000000067e-05
3.737255999999999832e-06
1.041279000000000064e-05
1.694684999999999852e-05
8.832949999999999854e-06
-1.519901999999999937e-05
-7.810663999999999457e-06
1.261571999999999989e-05
-2.646564000000000060e-06
-1.120641999999999968e-05
-6.280206999999999585e-06
-1.413458000000000046e-05
-1.879388999999999905e-05
7.902460999999999283e-06
-1.677151000000000097e-05
-2.791630999999999971e-05
-1.525711000000000070e-05
1.263900000000000045e-05
2.210251000000000126e-05
9.946943000000000557e-06
2.241538000000000086e-05
5.272865000000000040e-06
1.413142999999999990e-06
2.897224999999999925e-07
-1.746872000000000027e-06
-1.323967999999999993e-05
-1.972362000000000006e-05
-1.065818000000000101e-06
-2.602215999999999854e-06
1.208415000000000017e-05
1.226895000000000050e-05
1.257127999999999969e-05
-5.766717000000000034e-06
-1.951384999999999952e-05
-2.591885000000000003e-05
1.992971999999999881e-06
-6.599643999999999615e-07
-1.693707999999999946e-05
-1.469613999999999919e-05
-4.334744999999999949e-06
1.672804999999999987e-05
1.004746000000000053e-05
1.801845000000000025e-05
1.621160999999999978e-05
-4.385797999999999949e-06
-8.285992999999999968e-07
7.028644000000000294e-06
3.711782000000000116e-06
-1.879388000000000047e-06
-1.380122000000000065e-05
-1.204107000000000023e-06
-3.553292000000000131e-06
6.795323000000000398e-06
-1.934172999999999938e-06
1.767228999999999949e-05
2.520200000000000028e-05
-4.908145000000000253e-06
2.656191999999999860e-06
5.014286999999999854e-06
-3.383202000000000121e-06
-4.046233999999999993e-06
2.412336000000000073e-05
2.516367999999999960e-05
1.037365999999999920e-05
1.060729000000000022e-05
3.085622999999999984e-05
1.505059999999999952e-05
1.808738000000000096e-05
2.917661999999999832e-06
-4.282998000000000019e-05
-1.881483000000000024e-05
-2.414032000000000132e-05
-7.210361000000000438e-07
1.642886999999999912e-05
6.725132999999999635e-06
1.253526999999999967e-05
7.477872000000000086e-06
1.492551999999999936e-05
2.268700000000000149e-05
3.158949999999999969e-05
2.214231000000000044e-05
1.513939999999999942e-05
2.252625999999999869e-05
1.657600999999999920e-05
7.005703000000000406e-06
-2.712880000000000189e-06
1.514120999999999983e-06
-4.842718000000000311e-06
-1.579817999999999923e-05
8.669604000000000080e-06
2.079755999999999947e-05
1.491287000000000042e-05
1.624037999999999984e-05
1.618422000000000138e-05
1.960547999999999919e-05
7.118389999999999620e-06
-1.386234999999999951e-05
-7.347992000000000408e-06
7.370176000000000364e-06
-1.943291999999999876e-06
2.147108000000000043e-05
2.707746000000000011e-05
1.334694000000000032e-05
-6.441773999999999592e-06
5.290504999999999926e-06
2.871019000000000099e-05
1.217235999999999945e-05
3.545160999999999853e-05
2.583213000000000165e-05
-5.628347999999999598e-06
2.319644999999999964e-06
1.437398999999999966e-06
-6.317394000000000115e-06
2.587648000000000064e-05
7.321719000000000024e-06
1.084708000000000017e-05
9.062795999999999753e-06
1.290182000000000042e-05
7.453534000000000388e-06
7.214338999999999707e-06
2.091270000000000054e-05
2.165662000000000002e-05
2.732352000000000161e-05
1.347306000000000039e-05
8.315654999999999244e-06
3.905509999999999814e-05
2.869576000000000120e-05
1.511093000000000001e-05
2.726138999999999887e-05
6.729726999999999815e-06
-2.748191999999999996e-06
1.588904999999999994e-05
2.756050000000000150e-05
4.687419999999999922e-05
9.047578999999999625e-07
-1.073417999999999994e-05
-1.436994999999999953e-05
-1.796968000000000038e-05
-3.304439999999999909e-06
-3.443809999999999813e-06
-1.387953000000000025e-05
-5.927541000000000072e-06
1.332658000000000074e-05
3.714349000000000036e-05
3.803384999999999839e-05
5.257632000000000317e-06
-1.226861000000000043e-05
-3.462373999999999793e-06
9.711757999999999182e-06
1.482850000000000041e-05
-1.248842999999999929e-05
5.182993000000000200e-06
4.812228999999999594e-06
-1.190759000000000029e-05
-1.685224000000000045e-05
-8.569062000000000052e-06
-9.156621999999999895e-06
-3.482153000000000066e-06
-1.051905000000000053e-05
1.070326999999999925e-05
1.666298999999999884e-05
1.573225999999999902e-05
2.517846000000000016e-05
2.766599999999999905e-05
1.040162000000000020e-05
-8.295578000000000487e-06
-1.939377999999999916e-05
-1.205042000000000041e-05
-1.821136000000000041e-05
4.943556000000000039e-06
1.599162999999999990e-05
-1.066265000000000031e-05
-1.026185000000000069e-05
-8.138148999999999931e-06
-1.269557000000000049e-05
-3.103896999999999668e-05
-3.313989999999999758e-05
-1.751541999999999975e-06
1.771862999999999878e-05
5.053051000000000081e-05
5.206118000000000085e-05
-6.927749999999999867e-06
-2.843612999999999908e-05
-7.471081000000000035e-06
-1.712474000000000166e-05
-4.680917000000000198e-06
-1.154827000000000048e-05
-3.745495000000000042e-06
-8.029661999999999762e-06
1.409371000000000054e-06
7.218804999999999742e-06
-4.437712000000000212e-06
-2.245673000000000005e-05
-7.051858000000000305e-06
-8.008178999999999886e-06
1.884339999999999987e-05
3.585363999999999864e-06
-2.960048000000000090e-05
-1.014135000000000074e-05
-1.263520000000000059e-05
-1.854682000000000143e-05
-1.651352999999999908e-05
-4.573180000000000191e-07
1.986156000000000030e-05
1.643486000000000141e-05
-1.051999000000000022e-05
-3.468936000000000087e-06
1.526997999999999978e-05
2.807183000000000157e-06
5.196231000000000293e-05
3.524998000000000161e-05
-3.488641999999999996e-05
-9.815735000000000643e-06
-3.541140999999999847e-05
-2.532175999999999928e-05
-4.306551999999999760e-05
-4.310348999999999751e-05
-1.227736999999999999e-05
-7.529857000000000402e-06
-3.451923000000000187e-05
-2.382901999999999975e-05
-1.269140000000000016e-05
-1.437641999999999982e-05
-1.448862000000000020e-05
-1.250825000000000005e-05
-1.877440999999999835e-05
-1.303375000000000036e-05
7.404052000000000342e-06
4.001025000000000055e-07
-2.907108999999999952e-05
-1.195985000000000036e-05
-6.125597000000000400e-06
8.028685000000000533e-06
-2.558303000000000093e-05
-3.849523999999999974e-05
-5.157675999999999948e-07
2.785109000000000103e-05
3.554773000000000058e-05
6.269168000000000012e-06
-1.507260999999999933e-05
-7.661183000000000608e-06
-1.886961000000000042e-05
-1.537839999999999832e-05
7.982876999999999836e-06
-8.290624000000000534e-06
6.941913000000000124e-06
2.005487000000000133e-05
3.258553999999999769e-05
-1.250165999999999983e-05
-3.674231999999999688e-05
6.467139999999999715e-06
-6.080960999999999867e-06
-1.259875999999999929e-05
-3.136676999999999970e-06
9.732801000000000465e-06
6.473570999999999992e-06
-6.600383999999999925e-06
-2.122879999999999909e-05
-3.122524999999999805e-06
7.952559000000000239e-06
2.450599999999999881e-05
2.199704999999999974e-05
2.265038000000000115e-05
-1.691497000000000112e-05
-2.518931000000000024e-05
-1.058475000000000060e-05
-2.898697000000000006e-06
1.212108999999999917e-05
5.704614999999999761e-06
1.948902000000000064e-05
1.382422000000000026e-05
-1.846994000000000023e-05
-1.638788999999999871e-05
1.201090999999999949e-05
9.534391999999999498e-06
1.174186000000000077e-05
3.904687000000000347e-06
-1.233167000000000047e-05
-1.477775999999999995e-05
1.970534999999999930e-05
2.107730999999999963e-05
6.308590999999999583e-06
4.579979999999999643e-06
-7.424805999999999682e-08
-1.220963999999999894e-06
6.128750000000000402e-06
3.812469999999999939e-06
3.520200000000000195e-06
-5.349289999999999906e-06
-1.004710999999999976e-06
4.697366999999999846e-06
-3.284417000000000101e-06
4.645003000000000291e-06
8.985877000000000228e-07
-1.615140999999999992e-05
-1.437115999999999989e-06
-3.691760000000000124e-06
-1.740495000000000011e-05
-1.724800000000000156e-05
-1.244738000000000075e-05
-1.119807000000000000e-05
4.882206000000000195e-06
4.278620999999999942e-06
-2.631385999999999949e-05
-2.363804999999999978e-05
-1.031280999999999961e-05
-3.362692000000000211e-06
2.314322000000000032e-05
4.290704999999999774e-07
5.462096999999999891e-06
6.047298000000000051e-06
-3.482927999999999965e-07
1.093279000000000032e-06
-7.347568000000000351e-07
-3.458104000000000256e-05
-4.796024999999999876e-05
-1.557611999999999953e-05
-5.857493000000000264e-06
-3.195459000000000079e-06
3.815560000000000108e-06
2.441156999999999894e-06
-3.767076000000000251e-05
-4.912182000000000261e-05
4.306175000000000111e-07
1.790873999999999999e-06
-4.815824999999999754e-06
1.806415999999999952e-05
6.557288000000000397e-06
1.046635999999999918e-05
-4.113984999999999711e-06
1.878098000000000013e-06
1.451906999999999921e-05
5.767432000000000077e-06
-2.689924999999999915e-06
1.460896999999999982e-06
-3.012345999999999941e-06
-6.358794999999999653e-06
9.720097000000000459e-06
2.293875999999999855e-05
-3.244707000000000019e-06
-2.738111000000000185e-06
-1.110727999999999981e-05
-9.915860999999999352e-06
1.179419999999999967e-05
1.864125000000000046e-05
1.846337000000000141e-05
1.825380000000000131e-05
2.298631000000000117e-05
1.035070999999999970e-05
-3.998299000000000087e-06
1.410610999999999936e-05
-3.234402000000000208e-05
-4.323606000000000156e-05
4.683154000000000326e-06
-3.883183999999999920e-06
-1.305807999999999984e-05
1.011403000000000047e-05
1.027200999999999993e-05
4.331506999999999930e-06
1.634285999999999958e-05
9.194421000000000378e-06
4.869538999999999728e-06
8.958002999999999485e-06
2.062791000000000017e-05
2.443274000000000013e-05
-5.187151999999999596e-06
1.746916999999999998e-05
3.116864000000000114e-05
3.682299000000000233e-05
1.368696000000000016e-05
-9.855001000000000752e-06
-1.118856000000000050e-05
-7.315825000000000382e-06
2.236420999999999911e-05
-1.191030000000000098e-06
-2.180691000000000023e-05
-1.433712000000000005e-05
-5.227033999999999767e-06
-4.048377999999999883e-06
-2.012325000000000084e-05
4.503688999999999665e-06
1.475895999999999938e-05
1.446736999999999935e-05
2.102671000000000048e-05
2.586932999999999851e-05
-2.209250999999999967e-05
-7.333667000000000338e-06
-7.709067999999999558e-06
6.002226000000000188e-06
1.840003999999999942e-05
-6.755360999999999712e-06
2.511043999999999874e-05
1.165342000000000065e-05
-1.418834999999999944e-05
-2.403212000000000040e-06
-2.779335000000000047e-05
-2.166095999999999869e-05
-1.646761999999999938e-05
1.141385999999999985e-05
1.619943999999999884e-05
1.051920999999999987e-05
7.227259999999999986e-06
2.515019000000000119e-05
2.124073000000000017e-05
9.724803000000000342e-06
2.315328000000000018e-06
-1.775775999999999979e-06
6.195015000000000181e-06
-3.237437000000000086e-06
1.963970000000000104e-05
4.265877999999999749e-05
5.713765999999999734e-05
2.466146000000000156e-05
-1.021291000000000078e-05
-3.074067000000000073e-06
1.803949999999999898e-06
7.612234999999999633e-06
1.311950999999999935e-05
-7.701245999999999212e-06
-7.143152000000000011e-06
7.352263000000000354e-06
1.625449000000000097e-05
1.181663000000000006e-05
-8.385772000000000321e-06
-1.054694000000000002e-05
1.604870999999999834e-05
2.173893999999999892e-05
2.969517999999999848e-05
-1.161723000000000032e-06
4.464961999999999824e-06
-7.182982000000000018e-07
-1.027863999999999998e-06
1.238509000000000037e-05
2.158957999999999938e-05
2.384770999999999939e-05
7.945046000000000164e-06
7.751109000000000669e-06
2.030956000000000007e-05
1.305247000000000041e-05
-1.333122999999999992e-06
1.007239999999999959e-07
-3.492607000000000220e-05
-3.327801000000000294e-05
-7.638527000000000329e-06
-9.437664999999999959e-07
6.592505999999999727e-06
-9.155490999999999380e-06
3.555304000000000189e-06
5.126747000000000002e-07
-3.887976000000000059e-06
9.009096000000000590e-06
-1.791254999999999929e-06
-9.675423000000000148e-06
-1.134222999999999999e-05
-3.368189000000000118e-06
8.116275999999999878e-06
-1.076657000000000083e-05
-2.160810000000000069e-05
-7.482643000000000281e-06
-3.525389999999999780e-07
-1.746896999999999954e-05
-1.054651000000000044e-05
5.810577000000000323e-06
6.814597000000000071e-06
-4.333264000000000361e-06
-1.644841000000000063e-05
-1.693845000000000043e-05
-1.069081000000000005e-05
-9.312067999999999287e-06
-6.918957000000000034e-06
-6.821250000000000124e-06
-1.593261000000000126e-05
-1.000217999999999916e-05
-2.272821999999999836e-06
-4.178689000000000235e-06
-7.912844000000000231e-06
5.558178999999999626e-06
4.503812999999999700e-06
8.817722999999999661e-07
4.334786999999999838e-06
-4.513412000000000181e-06
-7.496593000000000377e-06
9.598234999999999761e-06
-2.970438999999999988e-06
-1.063173000000000061e-05
-1.285736000000000051e-05
9.577900999999999627e-06
1.406089999999999949e-05
1.059848999999999956e-05
-2.870215000000000098e-05
-1.347304999999999969e-05
-2.035535999999999970e-06
-2.374977999999999947e-06
1.647265999999999959e-05
1.776495000000000006e-05
3.776029999999999912e-06
-7.667570000000000519e-06
-1.814312000000000054e-06
4.267865999999999870e-08
-1.622753999999999947e-05
-2.276325999999999998e-05
-1.023404000000000002e-05
-2.466141000000000060e-06
-3.728711999999999885e-06
-2.503623000000000051e-06
-7.381259999999999485e-07
-4.043882000000000291e-06
-1.075729999999999948e-05
-5.250254999999999760e-06
-3.231331000000000098e-06
-5.838437999999999648e-06
1.018623999999999897e-06
-8.062116000000000245e-08
5.265339999999999634e-06
-1.323401999999999954e-06
-2.325766000000000155e-06
5.542435000000000409e-06
6.354322999999999876e-06
5.238204000000000204e-06
-5.212682000000000010e-06
-3.650702999999999917e-06
-2.815318000000000037e-06
5.986529999999999542e-07
3.402279000000000075e-06
-1.067297999999999958e-05
-7.043826999999999908e-06
-1.075644000000000030e-05
-4.750337999999999851e-06
1.580545999999999944e-06
-5.071754000000000298e-06
-5.579991000000000325e-06
-7.549981999999999638e-06
-1.809504000000000150e-05
-2.610947999999999993e-05
-2.825605999999999929e-05
-2.771113999999999994e-06
2.469056000000000099e-05
1.895162000000000135e-05
1.583675000000000046e-05
7.946099000000000008e-07
-2.066387999999999908e-05
-4.495566000000000115e-06
7.983802000000000170e-06
1.248716000000000023e-05
-3.697716000000000207e-06
-1.845655999999999935e-05
-3.421893000000000070e-05
-1.206110999999999945e-05
-2.029049000000000095e-05
-1.102042000000000010e-05
-1.499053999999999929e-05
-1.376729000000000045e-05
-1.162894000000000084e-05
-4.244758999999999926e-06
-1.028986000000000011e-05
-8.852968000000000583e-06
-1.179390999999999971e-05
-1.429959999999999943e-05
-9.008500999999999624e-06
-5.059950999999999964e-06
3.056864999999999997e-06
4.630210999999999929e-07
1.790145000000000120e-05
5.733454999999999640e-06
-9.272033000000000610e-06
-1.074891000000000040e-05
-7.627613000000000183e-06
-7.178237999999999932e-06
2.939021000000000096e-06
4.580892000000000254e-06
7.519590000000000116e-06
-9.236951000000000799e-06
-8.871914000000000520e-06
-4.251749000000000176e-06
-1.575788999999999966e-05
-2.400626000000000146e-05
5.983776999999999782e-06
5.961269000000000200e-06
8.700571999999999408e-06
-6.808918999999999615e-06
-1.209076000000000009e-05
-6.409287000000000050e-06
7.601385999999999798e-07
1.331381999999999919e-05
1.596860000000000158e-05
8.584202999999999565e-07
-3.616338000000000205e-06
2.548301000000000049e-06
4.920602999999999821e-06
-1.275153000000000021e-05
-8.245044999999999593e-06
8.443103999999999792e-06
1.166465999999999921e-05
1.303227999999999917e-05
4.766614000000000201e-06
-8.937413000000000754e-06
3.123436000000000176e-06
-6.131213000000000415e-06
-3.637255999999999943e-06
-4.793760000000000330e-06
-6.228573000000000276e-06
-3.237304000000000015e-06
-3.198177000000000144e-06
2.002269000000000074e-06
-1.146419999999999944e-05
-1.253572000000000066e-05
4.867043000000000286e-06
6.342194999999999677e-06
-6.149324000000000385e-06
5.911258000000000376e-07
5.808634999999999656e-06
1.776864000000000069e-05
1.793980000000000059e-05
1.016719999999999983e-05
-9.622604000000000103e-07
2.956416000000000207e-06
7.735002999999999505e-06
-3.992337000000000262e-06
7.433803999999999986e-06
1.120278999999999985e-05
6.602530000000000294e-06
1.356039000000000079e-05
-3.427342000000000092e-06
-9.650823999999999809e-06
-5.970769999999999671e-07
1.146785999999999967e-05
1.304211000000000073e-05
1.380466000000000074e-05
1.029456999999999925e-05
3.417402000000000150e-06
4.068725999999999981e-06
-2.196036999999999859e-05
8.708897000000000722e-06
6.827816999999999921e-06
-3.978318999999999984e-06
5.979507000000000076e-06
2.263380000000000003e-05
3.378352000000000075e-05
4.505367999999999721e-05
3.940042999999999844e-05
1.699059999999999958e-05
1.506661000000000100e-06
8.058370999999999625e-06
1.826674999999999921e-05
1.418025000000000031e-05
1.195268000000000022e-05
1.196794000000000048e-05
2.322983999999999848e-05
1.621599999999999856e-05
1.537274000000000005e-06
1.453443000000000106e-07
8.089289000000000538e-06
6.322763999999999693e-06
-9.240387999999999958e-07
-8.312261000000000001e-06
-5.577673000000000291e-06
-1.002177999999999979e-05
1.558079000000000012e-06
2.250466999999999946e-05
3.081540000000000315e-05
1.168894999999999928e-05
9.726623999999999999e-07
3.780008999999999844e-06
1.361198999999999959e-06
2.214422999999999923e-05
2.259663999999999919e-05
1.104137000000000030e-05
4.376251000000000056e-06
2.679012999999999824e-06
3.705856000000000014e-06
3.538511999999999995e-06
-1.233393999999999960e-06
-1.582499000000000068e-06
2.293710999999999832e-06
3.329334000000000132e-06
1.323217999999999958e-06
-2.432295999999999878e-06
-1.419285999999999984e-05
1.120236000000000026e-06
5.464647000000000401e-06
-1.268029000000000053e-05
3.847895999999999928e-06
7.158444999999999697e-06
-3.667518999999999927e-06
-6.193374999999999804e-06
-6.925834000000000341e-06
-6.462705000000000324e-06
-1.140743999999999966e-05
-8.831385999999999880e-06
7.929735999999999797e-06
8.610032999999999155e-06
-1.423682999999999977e-06
-1.187168999999999949e-05
-3.996744999999999966e-06
-6.142013999999999772e-06
-6.629576999999999596e-06
-4.805087999999999623e-06
-4.990197999999999618e-06
-4.796308999999999753e-06
3.395681999999999873e-06
4.045300000000000046e-06
6.711978000000000097e-06
-2.153940999999999951e-07
-1.049611000000000004e-05
-1.735289000000000048e-05
-2.309111000000000057e-05
-2.259746999999999966e-05
8.315182000000000375e-06
-6.850789999999999633e-07
-3.125621000000000139e-06
-8.131078000000000622e-06
-1.269697999999999918e-05
-3.246395999999999843e-06
2.394997999999999884e-06
-8.379536000000000132e-06
-2.459108999999999837e-05
-7.696165999999999592e-06
8.000320000000000001e-06
6.100072999999999727e-06
-4.443799999999999703e-06
-4.024540999999999827e-06
-2.024232999999999886e-06
1.279712999999999940e-06
8.112158999999999524e-06
1.220918999999999923e-05
-2.501342999999999795e-06
5.200223000000000203e-06
1.684081000000000004e-07
-1.203587999999999970e-05
-5.704621000000000350e-06
1.588791999999999882e-05
1.697875000000000070e-05
3.951202000000000020e-06
5.575025000000000253e-07
8.184117999999999355e-06
1.206050999999999898e-06
-2.547751000000000220e-07
3.647678000000000061e-06
4.753843999999999644e-06
-7.452542000000000110e-06
-1.955685999999999795e-06
-6.326694000000000179e-06
4.551253000000000236e-07
7.439196999999999775e-07
3.898258999999999940e-06
1.468449999999999976e-05
8.610982000000000152e-06
-3.037847000000000190e-06
-1.495922999999999941e-05
-1.774096999999999965e-05
-1.876294999999999965e-05
-1.447896999999999937e-05
5.058313000000000277e-07
4.544915999999999906e-06
2.413358000000000162e-06
-6.536841000000000320e-06
-1.581232999999999977e-05
6.060905000000000207e-06
-2.663023000000000168e-06
-1.459818000000000056e-05
4.840045000000000007e-06
1.054886000000000051e-05
1.794531999999999965e-06
-4.682661000000000058e-06
-4.066650000000000274e-06
-8.629674000000000277e-06
-1.251976000000000056e-05
-3.314461000000000181e-06
-2.231512999999999873e-06
5.094668000000000076e-07
-9.177348000000000474e-07
5.908409999999999899e-06
2.209783999999999983e-06
-9.939018999999999512e-06
-3.508506999999999932e-06
-1.270914999999999969e-07
-7.989428999999999430e-06
-8.387746000000000177e-06
-8.113894000000000618e-06
-6.085032999999999614e-06
-5.029824999999999738e-06
-1.470996000000000036e-05
-9.315097000000000101e-06
-7.232732000000000050e-07
-2.013734999999999999e-07
2.820738999999999964e-06
1.912656999999999872e-05
3.910246000000000271e-06
-2.831230000000000081e-06
-2.258895999999999980e-06
4.891867999999999663e-06
3.003806999999999919e-06
2.125832000000000080e-06
1.667000000000000133e-05
1.637534999999999899e-05
6.507636999999999710e-06
7.326572999999999758e-06
1.138663000000000079e-05
1.172345999999999939e-05
6.532454999999999952e-06
-4.052584000000000364e-06
-3.957848000000000091e-06
2.001290999999999970e-07
1.644559000000000029e-06
1.089041000000000065e-05
1.377272999999999985e-05
-2.139157000000000075e-06
-1.369055000000000058e-05
-2.575470999999999994e-05
-1.820918000000000037e-05
6.742044000000000361e-06
4.330426000000000372e-06
4.928000000000000082e-06
8.029213999999999254e-06
-4.868519999999999764e-06
-3.294106999999999918e-06
5.271009999999999869e-06
1.185959000000000007e-05
2.684397000000000211e-06
-6.215692000000000255e-06
-7.041917999999999728e-07
3.369088999999999974e-06
6.451961000000000211e-06
5.400394000000000044e-07
-3.793754999999999814e-06
-4.231745999999999650e-06
-7.223800000000000403e-07
-4.772138999999999610e-06
-9.146345000000000603e-06
-1.644858000000000024e-06
7.077531999999999825e-07
-3.552809999999999955e-06
-1.033566999999999959e-05
-6.273082000000000056e-06
-9.039288000000000520e-06
-7.662820000000000268e-06
-3.842640999999999925e-06
-8.714760999999999959e-06
-1.699108999999999998e-05
-6.869296000000000341e-06
7.392237999999999916e-06
1.229692999999999951e-05
-1.053695999999999982e-05
-5.954256000000000374e-06
-8.287235999999999339e-06
-7.085331000000000383e-06
-9.185679000000000047e-06
-3.780022999999999807e-06
-1.283145999999999962e-05
-3.153368000000000130e-06
-7.167186999999999975e-08
-2.432281999999999915e-06
-7.444718000000000132e-06
-4.413505999999999922e-06
-1.807010000000000085e-06
3.144832000000000085e-07
2.172136000000000069e-06
5.568939999999999573e-07
-4.932555999999999636e-06
-3.529498000000000203e-06
-1.151077000000000084e-06
3.128609000000000033e-06
-3.034490000000000063e-06
-2.528120999999999931e-06
-8.567479999999999158e-06
-9.735106000000000776e-06
6.205770999999999778e-07
2.735542000000000210e-06
-5.839075999999999895e-06
1.970617999999999892e-06
-5.508180999999999949e-07
-3.304386999999999928e-06
-3.477254000000000149e-06
-5.226459999999999593e-06
-3.296162999999999920e-06
-8.795554000000000119e-07
1.225989999999999929e-05
1.452500000000000069e-06
2.373250999999999921e-06
-4.806768999999999650e-07
-5.255255999999999952e-06
-3.604605000000000109e-06
-7.553506000000000352e-06
-8.684719000000000358e-06
-1.346174000000000047e-06
5.693998999999999793e-06
2.552049999999999986e-06
-6.282974999999999759e-06
-3.016473999999999963e-06
-6.528374999999999985e-06
-7.429951000000000143e-06
-3.418759000000000127e-06
4.250621000000000379e-06
1.424585000000000016e-05
9.733755999999999509e-06
5.996794000000000169e-06
1.738737000000000019e-05
7.244881999999999798e-06
-1.029356999999999918e-06
8.042752000000000681e-06
4.703763000000000216e-06
-2.773314999999999975e-06
-4.694145999999999661e-06
3.688529000000000087e-06
-1.844630000000000074e-06
-1.011563000000000059e-05
3.168738000000000035e-06
3.639182000000000168e-06
-4.980140000000000230e-06
-6.955382000000000283e-06
-8.256011999999999720e-06
-1.242495999999999958e-07
1.681044000000000028e-06
7.252647000000000053e-06
3.051299999999999907e-06
-8.388967999999999604e-06
-1.146947000000000049e-05
2.669443000000000142e-07
3.557480999999999931e-06
3.691307999999999929e-06
5.463553999999999664e-06
-1.395109000000000029e-06
-9.041413999999999490e-06
-1.249271000000000054e-05
4.106015000000000362e-06
1.034525999999999961e-05
1.559773000000000016e-05
5.824909000000000374e-06
-2.305031999999999990e-06
-2.389183000000000093e-06
4.841838999999999976e-07
2.427584999999999963e-07
1.079064999999999976e-05
3.071309000000000175e-06
-1.766927000000000083e-06
6.716690999999999962e-06
1.369447000000000036e-05
4.199508000000000417e-06
-8.520456999999999863e-06
3.159608000000000005e-06
3.892114999999999750e-06
-8.545350000000000481e-08
7.031462999999999970e-06
8.958191999999999831e-06
-3.060921999999999965e-07
5.156958000000000033e-06
-4.919250999999999982e-07
-5.400408000000000218e-06
-7.731648999999999672e-06
-5.995351000000000360e-06
5.817604000000000111e-07
1.751867000000000010e-05
1.235363000000000017e-05
1.526260999999999921e-05
-7.953570000000000830e-06
-1.209101000000000064e-05
4.936087000000000332e-06
7.949651999999999828e-06
8.595944000000000517e-06
1.092528000000000054e-05
4.528919999999999661e-06
8.794319000000000122e-06
1.136251999999999976e-05
1.323455999999999963e-06
6.767336999999999951e-06
7.930948000000000218e-06
6.695626000000000190e-06
8.539645999999999519e-06
2.673980999999999835e-06
-1.877404999999999942e-06
4.609873000000000002e-06
9.089898999999999755e-06
1.624302999999999888e-05
1.367026999999999981e-05
1.011144000000000055e-05
9.734875999999999932e-06
7.418893999999999649e-06
-1.665563000000000023e-06
1.025216999999999946e-05
2.001913999999999888e-05
2.760867000000000006e-05
1.493971000000000057e-06
-1.010083999999999933e-05
1.225769999999999955e-05
5.347494999999999697e-06
1.034149999999999916e-05
2.300551999999999992e-05
1.293628000000000043e-05
3.448684999999999914e-06
1.288061000000000067e-05
1.151226999999999947e-05
4.637617000000000121e-06
5.730415999999999821e-06
4.366223000000000226e-06
1.416192000000000044e-05
8.852314999999999286e-06
8.902410000000000371e-06
1.556671999999999925e-05
1.029740999999999972e-05
1.127501000000000032e-05
3.892032000000000212e-06
7.197246999999999702e-06
5.697692000000000301e-06
1.444796999999999916e-05
5.956637999999999634e-06
4.984684999999999693e-06
1.205861999999999975e-05
4.665396000000000148e-06
3.328803999999999901e-06
-3.225333999999999942e-06
-5.132906000000000183e-06
-6.800298999999999687e-06
-7.518172000000000361e-06
3.963330999999999612e-06
7.913828999999999680e-06
-1.233782000000000082e-06
9.443083000000000438e-07
1.662467999999999928e-06
2.886105000000000127e-06
3.153672999999999867e-06
1.806611000000000083e-06
-5.682975999999999814e-06
-7.892803999999999318e-06
-5.063901000000000155e-06
3.847098000000000347e-06
1.177135000000000038e-05
1.596112000000000008e-05
6.079031999999999982e-07
-5.848066999999999687e-06
8.152046000000000045e-06
6.912361000000000072e-06
3.674785000000000172e-06
5.791902000000000031e-06
1.033278999999999971e-06
2.341656000000000014e-06
-6.241478000000000112e-06
-4.845644999999999580e-06
4.576877999999999778e-07
-2.002014000000000107e-05
-5.301996000000000118e-06
-8.381046000000000733e-06
-1.284029999999999970e-05
-1.947197000000000053e-05
-6.853011999999999770e-06
-4.291649000000000421e-06
-8.858319999999999240e-06
-1.213711000000000008e-05
-5.300528999999999645e-06
4.501488999999999923e-06
6.445994000000000036e-06
1.572242000000000057e-06
5.172557000000000331e-07
2.172258999999999970e-07
-6.333177999999999590e-06
-6.802442000000000185e-06
-6.865648999999999832e-06
-1.488362000000000066e-05
-1.773265000000000038e-05
-1.066568000000000052e-05
-1.434967999999999946e-05
-1.399044000000000017e-05
-7.333454000000000176e-06
-6.969732999999999800e-06
-1.418890999999999965e-05
-8.774461999999999813e-06
-5.455312999999999822e-06
-8.174849000000000782e-06
8.223032999999999515e-07
7.004541000000000094e-06
-5.687674000000000324e-06
-1.714890999999999841e-05
-8.723358999999999915e-07
1.015839999999999917e-05
-6.416097999999999806e-06
-7.972353999999999259e-06
-1.350314999999999963e-05
-1.075383999999999969e-05
-7.972862000000000576e-06
9.045639000000000284e-06
1.094344999999999938e-05
-3.348181999999999905e-06
-1.239304999999999987e-05
-2.126136999999999817e-06
4.489660000000000248e-07
-6.802280000000000372e-06
-1.022039000000000058e-05
-9.307692000000000466e-06
-7.677397000000000518e-06
-1.525812000000000021e-05
-1.538746999999999923e-05
-1.697206000000000027e-05
-9.351344999999999487e-06
-5.532626999999999875e-06
-9.752124000000000008e-06
-9.031490000000000836e-06
5.645204000000000500e-07
-2.134716000000000095e-06
-6.485565999999999697e-06
-1.391905999999999917e-05
-1.304089000000000009e-05
-8.321836000000000668e-06
-1.019239999999999918e-05
-9.419678000000000447e-06
1.883011999999999921e-06
-5.442877999999999830e-06
1.532457000000000022e-06
-2.375693999999999965e-07
-4.795257999999999753e-06
-8.493163000000000730e-06
-9.595050999999999962e-06
1.179818000000000063e-07
-1.900116000000000046e-06
-2.467927000000000063e-05
-1.815741000000000070e-05
-3.351541999999999903e-06
-2.182893999999999975e-05
-1.832693999999999838e-05
-8.025926999999999365e-06
2.820115999999999919e-06
7.914959000000000167e-07
1.395749999999999935e-06
-1.059335000000000082e-05
-1.423316000000000011e-05
-7.284404000000000196e-06
6.186873999999999712e-06
8.444911000000000332e-07
-1.150441000000000104e-06
-5.429550999999999780e-06
-5.221934999999999835e-06
-8.664059999999999511e-06
-6.883383000000000195e-06
-7.499147000000000149e-06
-9.922698999999999642e-06
-5.708966000000000221e-06
-1.335418999999999928e-05
-7.456567999999999858e-06
5.522635999999999584e-06
1.077637999999999930e-05
9.311175999999999229e-06
2.057689999999999945e-06
-6.686083000000000407e-06
-3.592656999999999796e-06
-1.350290000000000077e-05
-9.518712000000000353e-06
-7.778527000000000683e-06
-1.290250000000000056e-05
-7.027087999999999694e-06
-5.838190999999999818e-06
-1.293466000000000060e-05
-1.359531999999999980e-05
-1.259907000000000065e-05
-2.554018999999999916e-06
3.086529000000000175e-06
-4.813597000000000086e-06
-1.100379999999999958e-05
-1.554277000000000094e-05
-1.011560999999999919e-05
-2.096796000000000041e-05
-2.023392000000000091e-05
-1.027068000000000006e-05
-1.837721000000000154e-05
-1.108358000000000036e-05
2.787842999999999932e-06
1.194586999999999986e-05
-1.062189000000000089e-06
-1.059817999999999989e-05
1.305511999999999944e-06
-6.383846999999999791e-07
2.076192000000000120e-07
-1.081946999999999994e-06
1.827656999999999966e-06
-5.200943999999999988e-06
-7.267147999999999899e-06
-1.419232999999999961e-06
-2.308256000000000046e-06
5.853169000000000338e-07
3.992563000000000148e-06
2.476329999999999781e-07
-6.015242999999999728e-06
2.615340999999999834e-06
7.005392000000000080e-07
9.497084000000000499e-06
1.454415999999999934e-05
5.722915000000000077e-06
9.271571000000000139e-07
3.156898000000000162e-06
8.189068000000000044e-06
5.251245999999999799e-06
1.655222000000000023e-06
-1.192388000000000102e-06
-3.959630999999999969e-06
4.169967999999999849e-06
3.366579999999999961e-06
1.640629999999999994e-06
-4.973983000000000316e-06
-5.649198000000000211e-07
3.518257000000000135e-06
1.442444999999999917e-06
-3.722064999999999997e-06
8.798525999999999995e-06
1.783849000000000139e-05
2.072360999999999995e-05
2.115105000000000140e-05
-7.775886999999999992e-09
-1.644157999999999971e-06
5.969185000000000389e-07
2.393541999999999927e-06
1.468376000000000051e-05
2.109777000000000112e-05
1.058070999999999919e-05
1.007068000000000028e-05
6.336857000000000136e-06
3.778688999999999830e-06
9.010429000000000328e-06
1.963196999999999900e-05
1.381737999999999950e-05
-1.695249999999999990e-06
1.348992999999999935e-06
1.848017000000000098e-05
2.977352000000000018e-05
2.584748000000000143e-05
2.048540999999999942e-05
1.105847000000000053e-05
8.816749000000000515e-06
1.210788000000000002e-05
3.490142000000000151e-06
5.956121000000000398e-06
1.475297999999999948e-05
1.232201000000000063e-05
6.298347999999999959e-06
2.652361999999999933e-05
2.659275000000000048e-05
2.491520999999999891e-05
2.154894999999999974e-05
1.119219999999999933e-05
3.550187000000000184e-06
-3.142973000000000122e-06
1.256810000000000042e-06
1.124396000000000085e-06
2.697925000000000093e-06
9.766876000000000642e-06
1.139600999999999967e-05
-3.456699999999999871e-06
3.975443000000000217e-06
1.069535999999999987e-05
1.410903000000000034e-05
4.916878000000000123e-06
5.377955999999999853e-07
1.562715000000000080e-06
1.000186000000000049e-05
1.714574000000000027e-05
6.914206999999999783e-06
1.046526000000000015e-05
1.395473999999999982e-05
6.704626999999999835e-06
4.949127999999999687e-06
3.849324000000000383e-06
-5.960012000000000019e-06
1.861151000000000030e-05
1.716033000000000109e-05
1.444680999999999933e-05
8.166576999999999449e-06
2.650156999999999926e-07
-7.905733999999999209e-06
-1.264813999999999907e-06
-6.687193000000000130e-06
-9.093926000000000589e-06
-7.305183000000000120e-06
-1.756776999999999934e-05
-4.030280999999999877e-06
6.847350999999999995e-06
4.954829999999999959e-06
1.446026000000000087e-06
5.025594000000000049e-06
9.066623000000000149e-06
-3.308353999999999953e-06
1.369130999999999953e-05
9.143295000000000692e-06
5.603519000000000110e-06
4.395768999999999688e-06
8.679199000000000451e-06
1.703392000000000064e-06
2.118986999999999809e-06
-2.694351999999999879e-08
-9.853210999999999198e-06
1.728426999999999943e-06
5.548857999999999619e-06
2.531880999999999959e-06
-7.138797000000000287e-06
-9.864338000000000354e-06
-9.897292000000000717e-06
-9.971209999999999354e-06
8.224422000000000587e-06
2.005486000000000063e-05
-5.010967999999999929e-06
-3.564722000000000122e-06
8.079221999999999843e-07
-6.140137000000000264e-06
-1.151597000000000081e-05
-1.148483999999999997e-05
4.750942999999999822e-06
4.312232000000000017e-06
-2.437957000000000077e-06
2.825674999999999843e-06
5.936530000000000233e-06
8.539009000000000359e-06
-1.188084999999999993e-05
-4.402803999999999698e-06
5.460181000000000366e-06
-1.899599999999999884e-07
-9.307508000000000469e-06
5.903490999999999853e-06
8.699430000000000495e-06
-2.084243999999999827e-06
1.326535000000000039e-06
-4.058809999999999854e-06
-9.492058999999999645e-06
-7.207905000000000406e-06
1.807626999999999964e-06
-2.762117999999999852e-06
-2.951668999999999827e-06
5.485423999999999846e-07
9.330990999999999648e-06
5.482663999999999893e-06
5.375160999999999781e-06
-1.441193000000000086e-06
-1.264377999999999942e-06
1.008190999999999899e-06
-5.968538999999999709e-06
-1.179999999999999925e-06
5.706117000000000140e-06
1.054675999999999929e-05
1.500055000000000074e-06
4.129718999999999923e-06
1.733294000000000078e-05
2.272773000000000135e-05
1.292156000000000068e-05
-6.124372000000000255e-06
-8.225850000000000195e-06
1.367888999999999974e-05
2.087964999999999837e-06
-7.771689999999999786e-06
-1.313597999999999955e-05
-3.427652000000000179e-06
-2.170079999999999934e-08
-8.348924000000000043e-07
-4.048563000000000120e-06
-7.436336999999999814e-06
-9.561962999999999713e-06
1.732554999999999965e-06
2.639398000000000034e-06
-8.344883000000000517e-06
-6.452605000000000200e-06
9.132936000000000407e-06
3.408190999999999790e-06
2.156833000000000107e-06
4.514322000000000313e-06
-2.592756999999999849e-06
1.537704000000000016e-06
-3.629254000000000133e-06
-1.099764000000000064e-05
2.195798999999999981e-06
1.535850999999999943e-05
6.713203000000000242e-06
-3.870291000000000414e-06
-1.133681999999999931e-05
-1.183473000000000078e-05
-1.350788000000000017e-05
-5.925082000000000169e-06
1.957021000000000011e-06
4.210022999999999926e-06
-1.116977999999999964e-05
-9.859072999999999651e-06
-3.955746000000000090e-06
4.005894999999999886e-08
-5.721646000000000411e-06
-4.799821000000000136e-06
-6.120642999999999600e-06
-6.379676999999999668e-06
-2.246431000000000007e-06
-6.215835999999999994e-06
-1.144990000000000027e-05
-1.309357999999999975e-05
5.509289000000000040e-08
3.663406000000000107e-06
2.128544999999999794e-06
1.409310999999999953e-08
4.637952000000000157e-07
-9.996720000000000063e-07
-8.995634999999999805e-07
5.501442000000000274e-06
-9.932781000000000539e-06
-1.031754999999999916e-05
5.763647000000000418e-06
-2.127478000000000093e-07
1.923797999999999953e-07
-9.296584000000000470e-07
-6.830975999999999665e-06
-1.059794000000000004e-05
1.223909000000000084e-06
-4.067849000000000124e-06
2.005571000000000165e-06
-8.804844999999999722e-07
-9.666070999999999496e-06
-1.699609000000000078e-05
-1.718997999999999834e-05
-6.477720999999999775e-06
2.493039000000000120e-06
8.001229999999999286e-06
5.245382999999999953e-06
-3.464934999999999971e-06
-4.917781000000000273e-06
-5.884851999999999709e-06
-1.124177999999999996e-06
-7.832767000000000353e-06
-2.404112000000000065e-05
-1.924580000000000130e-05
-1.013215999999999991e-05
-1.081297999999999994e-05
-1.854653000000000147e-05
-1.916017999999999855e-05
-4.284192999999999590e-06
-1.005466000000000065e-06
-2.300006000000000167e-06
4.923758000000000301e-06
3.148405999999999850e-07
-1.199635999999999978e-05
-1.540068999999999908e-05
-1.195828000000000064e-05
-1.084800999999999916e-05
-1.157605000000000075e-05
-3.646790000000000112e-06
1.546345999999999916e-06
-8.925449000000000370e-08
6.718635000000000260e-08
-4.876692000000000030e-06
-9.345389999999999643e-06
-8.820114999999999832e-06
-6.689469999999999668e-06
-6.507490000000000523e-07
-3.508971999999999851e-06
-2.388044000000000204e-06
-6.213108000000000077e-06
-4.220511999999999987e-06
-1.080504000000000014e-05
-1.213232999999999942e-05
-9.353984999999999516e-06
3.862053000000000126e-07
-1.059643999999999930e-06
-9.319655999999999527e-06
-1.993707999999999869e-06
6.434414999999999956e-06
7.253029000000000010e-06
9.406249000000000546e-06
9.583749000000000117e-06
1.697902999999999954e-06
1.854082999999999914e-06
9.062338999999999632e-06
8.563447999999999668e-06
-7.916763000000000624e-06
-7.071281000000000069e-06
6.991202999999999952e-06
-1.367252999999999994e-06
-4.260663000000000173e-06
1.301835000000000047e-05
1.543908999999999858e-05
1.367609000000000038e-05
3.364056000000000170e-06
-3.736186999999999758e-07
-2.321988999999999869e-06
-8.384886000000000005e-06
-1.402200000000000102e-06
8.280104999999999220e-06
1.287177000000000060e-05
1.678191000000000006e-05
1.229900000000000032e-05
2.613081999999999946e-06
7.562083000000000151e-06
1.118296000000000008e-05
7.034310000000000419e-06
5.214666999999999958e-06
5.819860999999999944e-06
1.416049999999999935e-05
1.446668999999999921e-05
1.107677000000000000e-05
1.147724999999999925e-05
1.134541000000000053e-05
6.516200000000000394e-06
-6.667129999999999641e-06
1.270174000000000013e-05
3.185549999999999934e-06
1.021806999999999922e-05
2.511846000000000074e-05
1.495029999999999982e-05
-1.505725999999999913e-06
-3.801962999999999804e-06
9.000543000000000605e-06
1.560360000000000084e-05
1.287954999999999936e-05
1.728698000000000097e-05
1.873018000000000098e-05
6.903649000000000146e-06
-4.248784999999999674e-06
1.680407000000000020e-06
-7.432164000000000244e-07
-7.450847000000000544e-08
-3.210601999999999860e-06
-5.394184999999999753e-06
1.301157000000000051e-05
2.080621999999999881e-05
1.676428000000000003e-05
3.558864000000000202e-06
-4.645010999999999665e-06
8.753899999999999526e-07
1.364669999999999929e-05
9.523109999999999358e-06
7.273763000000000174e-06
-1.497171000000000086e-06
-1.232898000000000033e-05
-7.442217999999999733e-06
-1.233395999999999973e-05
-9.362255999999999763e-06
1.676528000000000095e-06
7.798362000000000807e-06
-2.076412000000000051e-06
-9.225104999999999490e-06
-1.507683999999999963e-06
2.488092000000000148e-06
3.986955000000000353e-06
3.008822999999999890e-06
-8.590435000000000703e-06
-3.977623000000000253e-06
-5.950516000000000051e-07
1.175673999999999943e-06
3.576210999999999835e-06
5.385372000000000215e-06
4.229002000000000138e-06
1.346232999999999982e-06
-4.243799999999999924e-06
-1.601261000000000050e-05
-1.472551999999999958e-05
-9.667797000000000553e-07
-1.736088000000000081e-06
-9.524296999999999725e-06
-1.546523999999999832e-05
-1.217291999999999966e-06
-6.511054999999999615e-06
-7.693140000000000343e-06
-9.704603999999999488e-06
-5.132903999999999704e-06
-5.104097000000000100e-06
-6.696175000000000309e-06
-8.016205999999999327e-06
-1.095502999999999970e-05
-2.037946000000000088e-05
-2.025238999999999872e-05
-1.243071000000000012e-05
-1.909584000000000045e-05
-2.111578999999999879e-06
-8.339133999999999159e-06
-9.113659999999999407e-06
-4.841567000000000091e-06
-5.514978000000000377e-06
-1.374671000000000073e-05
-2.044890000000000000e-05
-7.196145000000000412e-07
-4.938834999999999954e-06
-1.565450000000000064e-05
-4.473199999999999795e-06
-9.310226000000000534e-06
-1.024126000000000027e-05
-9.565165000000000432e-06
-1.084481000000000061e-05
-1.356148000000000081e-05
-9.418044000000000659e-06
-1.193999000000000018e-05
-1.445143000000000065e-06
-9.607877999999999764e-06
-2.731044000000000139e-05
-2.608464000000000035e-05
-1.610837999999999840e-05
-1.474328999999999924e-05
-1.698278000000000141e-05
-2.051900000000000124e-05
-7.460038999999999744e-06
4.947244000000000198e-06
2.857349999999999841e-06
-9.481527999999999694e-07
-3.949062000000000240e-06
-1.232152000000000023e-05
-1.046807000000000022e-05
6.023343999999999941e-07
7.326568000000000255e-06
4.721705000000000391e-06
1.599161000000000061e-07
-2.489237000000000203e-06
-1.184843000000000033e-05
-2.442457000000000203e-06
-6.164484000000000422e-06
7.047315999999999655e-07
6.508269999999999607e-06
3.384294000000000195e-06
-6.884706999999999684e-07
-5.493144000000000341e-06
-9.453185000000000193e-06
-2.859616999999999950e-06
-1.618474999999999992e-06
6.769110000000000188e-07
3.553269999999999947e-06
-5.689659999999999664e-06
1.092746999999999958e-06
1.873677999999999851e-05
1.596616000000000029e-05
1.250843000000000079e-05
1.284009999999999926e-05
1.656737999999999942e-06
5.514734000000000418e-06
-1.095099999999999900e-06
1.234912999999999962e-06
1.145257999999999971e-05
1.642596999999999954e-05
5.344189000000000342e-06
1.645712999999999908e-06
1.471107999999999993e-06
-3.868889000000000254e-06
-1.288855999999999904e-06
1.360846000000000082e-05
2.557369999999999877e-06
7.528475999999999975e-07
1.633785000000000147e-05
1.084519000000000009e-05
8.083463999999999624e-06
6.381746000000000241e-06
-5.659965000000000112e-06
-1.951676000000000065e-06
8.541900999999999720e-06
1.614417999999999897e-05
1.820542000000000162e-05
2.325216999999999866e-05
1.771308000000000016e-05
1.054573999999999951e-06
5.083456000000000174e-06
5.095523000000000172e-06
1.595400000000000006e-05
1.771584000000000011e-05
8.955158000000000362e-06
1.212682999999999922e-05
8.282166000000000419e-06
3.218935999999999940e-06
3.162995000000000114e-06
1.022046000000000040e-05
1.006063999999999928e-05
1.415628999999999961e-05
2.489035000000000132e-05
2.400398000000000120e-05
8.082869000000000352e-06
-1.565052000000000004e-06
8.607557999999999446e-08
1.257223000000000008e-05
1.808705999999999891e-05
2.158065000000000149e-05
2.770842999999999925e-05
2.820113999999999949e-05
1.764569999999999946e-05
2.334956999999999962e-06
2.255796000000000044e-05
3.010133999999999868e-05
2.873354000000000137e-05
2.817584999999999892e-05
2.174710000000000054e-05
7.077884000000000012e-06
5.592274999999999749e-06
1.676669999999999991e-05
1.187301999999999936e-05
1.058898000000000005e-05
5.099433000000000106e-06
1.729903000000000029e-05
1.511031000000000068e-05
6.131928999999999851e-06
2.561046999999999944e-06
1.267879000000000063e-05
4.147053999999999648e-06
-3.313551000000000049e-06
2.091710999999999903e-06
-3.179885000000000049e-06
2.331401000000000059e-06
-1.066786999999999956e-06
2.735262999999999920e-06
7.025795999999999605e-06
6.869540999999999693e-06
5.365965000000000047e-06
-6.790351999999999764e-07
-6.652309000000000279e-06
-3.333532000000000180e-07
8.305929000000000551e-06
-2.088122000000000148e-06
-4.806327999999999970e-06
9.853641999999999872e-06
1.106084000000000073e-06
4.172857999999999579e-06
-3.862726999999999990e-06
-1.377432999999999997e-05
-1.631737999999999928e-05
-9.067139999999999385e-06
-1.599341999999999976e-05
-2.063539000000000166e-05
-1.350982000000000036e-05
-6.785555000000000121e-06
-3.491692000000000056e-07
-7.937992000000000688e-06
-5.270282000000000102e-06
-1.638162000000000055e-05
-2.123174000000000147e-05
-1.674481000000000003e-05
-1.924240000000000062e-05
-1.131146000000000062e-05
-1.900685999999999898e-06
-9.887797000000000141e-07
-8.660250000000000643e-06
-1.838747000000000100e-05
-1.715187999999999950e-05
-1.861506000000000131e-05
-1.679544000000000127e-05
-2.868796999999999835e-05
-3.144262999999999816e-05
-2.236178999999999923e-05
-2.432605000000000065e-05
-2.950075000000000042e-05
-1.901763000000000108e-05
-1.731924000000000123e-05
-2.605476000000000057e-05
-2.340070999999999842e-05
-2.440891000000000005e-05
-2.305200999999999954e-05
-2.463480000000000002e-05
-1.307427999999999978e-05
-1.845247000000000122e-05
-2.369904000000000070e-05
-1.728554999999999919e-05
-1.300128000000000065e-05
-2.672489999999999971e-06
-1.114890000000000052e-06
-1.422854999999999991e-06
-1.961199000000000059e-05
-9.149510999999999481e-06
-3.711646999999999990e-06
-1.499450000000000018e-05
-1.956148000000000096e-05
-2.597872000000000053e-05
-1.190674000000000012e-05
-1.018927999999999945e-05
-1.550922999999999923e-05
-5.012190999999999595e-06
-5.942688000000000386e-06
-4.580892000000000254e-06
6.657202999999999846e-07
9.796965999999999875e-06
-1.562624999999999925e-06
-7.887768999999999458e-06
4.456121999999999752e-06
1.027565000000000046e-05
3.483440000000000122e-07
-4.092660000000000068e-07
3.323263000000000050e-06
9.200476000000000441e-06
7.108131000000000402e-06
2.355532000000000184e-06
2.661382999999999791e-06
2.904193999999999913e-06
-1.125908999999999963e-05
-6.133279000000000270e-06
-6.924699999999999532e-07
3.623018000000000262e-07
1.282496000000000062e-05
9.862375000000000590e-06
9.132979000000000111e-07
1.855165999999999951e-06
-1.248685999999999957e-05
-3.795738000000000130e-06
-5.423630999999999843e-06
6.501472999999999814e-07
8.815402000000000814e-06
1.644761000000000099e-06
-1.093584999999999966e-05
-1.418265999999999949e-05
-9.344277999999999441e-06
-5.631117000000000011e-06
5.316317000000000078e-06
1.560797000000000161e-05
1.671427999999999881e-05
7.710062999999999707e-06
1.425409999999999961e-05
1.270056000000000059e-05
-6.220993000000000257e-06
3.651723999999999937e-06
1.204788000000000060e-05
1.081577999999999930e-05
6.201036999999999969e-06
6.333560000000000394e-06
-2.883396000000000099e-06
-4.067709999999999887e-06
4.277114000000000060e-06
4.570254000000000102e-06
3.950788000000000027e-06
1.514942000000000072e-05
1.248961999999999952e-05
8.724420999999999796e-06
5.478527999999999650e-07
-6.647465999999999790e-06
1.225413999999999953e-05
1.602266999999999952e-05
2.774490999999999996e-05
1.956894999999999837e-05
6.094307999999999622e-06
5.702087000000000282e-06
8.594411000000000341e-06
1.210956000000000066e-05
9.899358000000000571e-06
1.620601000000000021e-06
-1.385232999999999947e-06
1.796974999999999850e-05
2.909762999999999944e-05
2.268355000000000070e-05
2.406797999999999924e-05
1.751461000000000069e-05
5.545502000000000154e-06
5.577046000000000347e-07
-6.365922000000000509e-08
1.016162999999999981e-05
-7.186192999999999926e-06
-6.588484000000000090e-06
6.541030000000000120e-06
4.098651999999999768e-06
1.293325000000000022e-05
8.811860000000000027e-06
3.432002999999999792e-06
4.664837000000000176e-06
-5.943713000000000516e-07
-5.325199000000000038e-06
7.747734000000000044e-06
9.305389000000000634e-06
1.119859999999999981e-05
9.535099000000000168e-06
1.551714000000000031e-05
1.239669999999999940e-05
7.630256000000000083e-06
1.194379000000000004e-05
2.642463999999999964e-06
3.215147000000000169e-06
-5.664132000000000152e-07
2.630275999999999802e-06
7.535466999999999829e-06
7.518002000000000327e-06
6.362617999999999939e-06
4.677754999999999736e-06
6.801173999999999912e-06
9.219213000000000326e-06
6.207579999999999950e-06
7.613009999999999638e-06
1.296444000000000017e-05
1.305288000000000029e-05
7.309601999999999917e-06
1.734152000000000003e-06
1.424723000000000013e-05
4.686990000000000335e-06
1.341393000000000000e-06
4.577112000000000097e-06
2.775886000000000006e-06
2.285869000000000204e-06
7.445068999999999657e-07
4.848075000000000165e-06
7.223178999999999779e-06
-8.825999999999999861e-06
-1.311727000000000020e-05
-1.343974000000000052e-05
-5.896560000000000173e-06
7.490393999999999727e-06
2.174753999999999914e-06
-1.707151000000000064e-06
2.242618999999999814e-06
-7.229728000000000349e-06
-5.879972999999999920e-06
-3.388837999999999842e-06
-1.758256000000000060e-05
-1.805753999999999932e-06
2.837626000000000028e-06
3.104797000000000032e-06
3.593962999999999847e-06
-3.997196000000000345e-06
-7.800192999999999469e-06
-1.135587000000000043e-05
-6.065252999999999949e-06
4.977227000000000077e-06
3.778637999999999904e-06
4.631057000000000306e-06
9.379766999999999264e-06
1.067029000000000071e-06
-1.905378000000000030e-06
5.120535000000000264e-06
6.581299999999999990e-06
-6.219045000000000483e-07
3.604140000000000190e-06
-2.011703999999999840e-06
-1.059484000000000002e-05
-9.151355999999999800e-06
-6.224167000000000203e-06
-9.620388000000000767e-06
4.531211999999999825e-07
1.003743000000000022e-05
3.543242000000000117e-06
-1.572333000000000028e-06
9.378612999999999173e-06
3.314482000000000126e-06
-7.850799000000000048e-06
6.785089999999999779e-06
7.895270999999999442e-06
1.118883999999999976e-06
8.590301000000000816e-06
1.781117000000000111e-05
1.833144000000000147e-05
1.528925999999999962e-06
-7.661039000000000022e-06
-7.234565999999999641e-06
2.916433999999999816e-06
2.689374999999999980e-06
2.521034999999999995e-06
3.161217000000000162e-06
-3.738375000000000016e-06
-1.106588000000000009e-06
