2.504000e+00 3.963643e-03 0.000000e+00 2.178482e-02 3.963643e-03 1.071876e-02 -4.384466e-03
2.508000e+00 1.638842e-02 9.405299e-07 8.378804e-03 1.638936e-02 1.072030e-02 -4.415718e-03
2.512000e+00 -2.741316e-03 4.825809e-06 -1.536129e-02 -2.736490e-03 1.071756e-02 -4.467550e-03
2.516000e+00 -2.818433e-02 -1.292322e-06 -2.341223e-02 -2.818562e-02 1.071549e-02 -4.471397e-03
2.520000e+00 -2.512535e-02 -2.465394e-05 -4.097849e-03 -2.515001e-02 1.071203e-02 -4.427739e-03
2.524000e+00 -1.255506e-03 -2.808020e-05 1.549424e-02 -1.283586e-03 1.070867e-02 -4.399082e-03
2.528000e+00 8.164030e-03 7.181502e-06 1.056685e-02 8.171212e-03 1.071088e-02 -4.429758e-03
2.532000e+00 -1.300914e-02 3.615107e-05 -1.260913e-02 -1.297298e-02 1.071020e-02 -4.480965e-03
2.536000e+00 -3.551996e-02 1.096951e-08 -2.093848e-02 -3.551995e-02 1.070867e-02 -4.483369e-03
2.540000e+00 -2.530357e-02 -7.412519e-05 -1.164572e-03 -2.537769e-02 1.071328e-02 -4.439278e-03
2.544000e+00 7.809670e-04 -6.380501e-05 2.067345e-02 7.171620e-04 1.071275e-02 -4.411728e-03
2.548000e+00 1.294727e-02 4.446870e-05 8.882889e-03 1.299173e-02 1.071723e-02 -4.446827e-03
2.552000e+00 -4.616229e-03 1.057936e-04 -1.316429e-02 -4.510436e-03 1.072021e-02 -4.493418e-03
2.556000e+00 -2.338688e-02 6.276283e-06 -1.962217e-02 -2.338060e-02 1.072006e-02 -4.494187e-03
2.560000e+00 -1.652023e-02 -1.379244e-04 -1.956722e-03 -1.665815e-02 1.071578e-02 -4.455193e-03
2.564000e+00 5.500994e-03 -1.091295e-04 2.020182e-02 5.391864e-03 1.071838e-02 -4.424613e-03
2.568000e+00 1.386448e-02 8.845393e-05 1.415229e-02 1.395294e-02 1.072011e-02 -4.455145e-03
2.572000e+00 1.867155e-03 1.913629e-04 -1.145283e-02 2.058518e-03 1.072285e-02 -4.501303e-03
2.576000e+00 -1.970761e-02 2.810108e-05 -1.763912e-02 -1.967951e-02 1.072275e-02 -4.505101e-03
2.580000e+00 -1.278219e-02 -2.128386e-04 3.800993e-03 -1.299503e-02 1.072477e-02 -4.462742e-03
2.584000e+00 1.085920e-02 -1.646846e-04 2.308200e-02 1.069452e-02 1.072891e-02 -4.433893e-03
2.588000e+00 2.875521e-02 1.558621e-04 1.244157e-02 2.891107e-02 1.073843e-02 -4.463222e-03
2.592000e+00 1.379348e-02 3.319308e-04 -1.242263e-02 1.412541e-02 1.073516e-02 -4.510294e-03
2.596000e+00 -8.740194e-03 6.550150e-05 -2.203773e-02 -8.674692e-03 1.073059e-02 -4.513948e-03
2.600000e+00 -8.950207e-03 -3.263260e-04 8.280904e-05 -9.276533e-03 1.072949e-02 -4.474810e-03
2.604000e+00 1.284407e-02 -2.851666e-04 2.166877e-02 1.255890e-02 1.073030e-02 -4.445048e-03
2.608000e+00 2.306207e-02 2.010783e-04 9.700411e-03 2.326315e-02 1.073271e-02 -4.474089e-03
2.612000e+00 6.297677e-03 4.667281e-04 -1.388674e-02 6.764405e-03 1.072742e-02 -4.522555e-03
2.616000e+00 -1.812221e-02 7.887293e-05 -2.016670e-02 -1.804334e-02 1.072453e-02 -4.525007e-03
2.620000e+00 -1.883440e-02 -4.882679e-04 2.383485e-03 -1.932267e-02 1.072189e-02 -4.482888e-03
2.624000e+00 3.261741e-03 -4.232791e-04 2.036240e-02 2.838462e-03 1.071828e-02 -4.453991e-03
2.628000e+00 1.284037e-02 2.584762e-04 1.001799e-02 1.309885e-02 1.071958e-02 -4.483753e-03
2.632000e+00 -6.764926e-03 6.198669e-04 -9.921727e-03 -6.145059e-03 1.071718e-02 -4.530007e-03
2.636000e+00 -2.587599e-02 8.697218e-05 -1.403696e-02 -2.578902e-02 1.072348e-02 -4.530007e-03
2.640000e+00 -2.243695e-02 -6.390382e-04 5.706170e-03 -2.307599e-02 1.071727e-02 -4.485772e-03
2.644000e+00 4.964363e-04 -5.159651e-04 1.983575e-02 -1.952883e-05 1.071203e-02 -4.452933e-03
2.648000e+00 5.605690e-03 3.549893e-04 1.359806e-02 5.960680e-03 1.070617e-02 -4.481541e-03
2.652000e+00 -1.312621e-02 7.619185e-04 -8.107815e-03 -1.236429e-02 1.070939e-02 -4.529094e-03
2.656000e+00 -3.851402e-02 7.089574e-05 -1.185401e-02 -3.844312e-02 1.070987e-02 -4.531738e-03
2.660000e+00 -3.138846e-02 -8.351692e-04 2.679031e-03 -3.222362e-02 1.070804e-02 -4.486542e-03
2.664000e+00 -7.496078e-03 -6.510674e-04 2.014265e-02 -8.147146e-03 1.070650e-02 -4.455241e-03
2.668000e+00 4.504284e-03 4.415021e-04 1.195705e-02 4.945786e-03 1.070660e-02 -4.483898e-03
2.672000e+00 -1.389354e-02 9.536065e-04 -1.307082e-02 -1.293993e-02 1.070920e-02 -4.532459e-03
2.676000e+00 -3.560031e-02 7.602968e-05 -1.904257e-02 -3.552428e-02 1.070602e-02 -4.534142e-03
2.680000e+00 -3.221396e-02 -1.059197e-03 -2.837901e-03 -3.327316e-02 1.070025e-02 -4.491302e-03
2.684000e+00 -1.239837e-02 -8.461539e-04 1.998279e-02 -1.324452e-02 1.069665e-02 -4.458414e-03
2.688000e+00 -1.082477e-02 5.105044e-04 1.157079e-02 -1.031427e-02 1.068684e-02 -4.485724e-03
2.692000e+00 -3.239868e-02 1.120034e-03 -1.409009e-02 -3.127865e-02 1.068030e-02 -4.530632e-03
2.696000e+00 -5.292053e-02 2.081172e-05 -1.629980e-02 -5.289972e-02 1.068328e-02 -4.530921e-03
2.700000e+00 -4.587857e-02 -1.338744e-03 9.457225e-03 -4.721731e-02 1.068568e-02 -4.484474e-03
2.704000e+00 -3.202896e-02 -9.774658e-04 2.432819e-02 -3.300642e-02 1.066871e-02 -4.451395e-03
2.708000e+00 -3.992307e-02 6.502416e-04 4.544557e-03 -3.927283e-02 1.063981e-02 -4.480147e-03
2.712000e+00 -6.973531e-02 1.181344e-03 -1.888945e-02 -6.855397e-02 1.062510e-02 -4.528853e-03
2.716000e+00 -9.953625e-02 -3.082217e-04 -1.351374e-02 -9.984448e-02 1.062380e-02 -4.527411e-03
2.720000e+00 -9.877379e-02 -1.849873e-03 1.080237e-02 -1.006237e-01 1.062159e-02 -4.480388e-03
2.724000e+00 -6.697992e-02 -1.213584e-03 2.802243e-02 -6.819351e-02 1.063111e-02 -4.446730e-03
2.728000e+00 -4.298512e-02 8.732189e-04 2.102069e-02 -4.211190e-02 1.065126e-02 -4.473031e-03
2.732000e+00 -3.933203e-02 1.614772e-03 -4.912050e-03 -3.771726e-02 1.067164e-02 -4.518516e-03
2.736000e+00 -4.680826e-02 -2.601090e-05 -2.056271e-02 -4.683427e-02 1.067371e-02 -4.517458e-03
2.740000e+00 -3.184061e-02 -1.890217e-03 -8.644424e-03 -3.373083e-02 1.067059e-02 -4.473031e-03
2.744000e+00 -3.609866e-03 -1.344107e-03 1.639794e-02 -4.953974e-03 1.067592e-02 -4.441490e-03
2.748000e+00 8.665566e-03 1.021111e-03 1.570285e-02 9.686677e-03 1.069092e-02 -4.467021e-03
2.752000e+00 3.233175e-03 2.025881e-03 -5.619180e-03 5.259057e-03 1.071001e-02 -4.509621e-03
2.756000e+00 -2.547825e-03 2.627692e-04 -1.805264e-02 -2.285056e-03 1.071852e-02 -4.511977e-03
2.760000e+00 2.037597e-02 -1.873052e-03 -3.583237e-03 1.850292e-02 1.073401e-02 -4.467550e-03
2.764000e+00 5.327795e-02 -1.295032e-03 1.717240e-02 5.198292e-02 1.074444e-02 -4.437066e-03
2.768000e+00 7.113796e-02 1.383213e-03 2.605178e-03 7.252118e-02 1.075112e-02 -4.466637e-03
2.772000e+00 5.627355e-02 2.517216e-03 -2.099472e-02 5.879076e-02 1.075353e-02 -4.511304e-03
2.776000e+00 3.453846e-02 3.993318e-04 -2.318995e-02 3.493780e-02 1.075107e-02 -4.512217e-03
2.780000e+00 3.766480e-02 -2.127625e-03 -5.219754e-04 3.553717e-02 1.075088e-02 -4.467069e-03
2.784000e+00 5.970911e-02 -1.480889e-03 2.073560e-02 5.822822e-02 1.075487e-02 -4.432403e-03
2.788000e+00 7.184500e-02 1.626530e-03 1.007888e-02 7.347153e-02 1.075915e-02 -4.461877e-03
2.792000e+00 5.724787e-02 2.942774e-03 -1.501660e-02 6.019065e-02 1.076242e-02 -4.510679e-03
2.796000e+00 3.107295e-02 4.939438e-04 -1.953273e-02 3.156690e-02 1.075987e-02 -4.511015e-03
2.800000e+00 3.622087e-02 -2.492306e-03 7.533777e-04 3.372857e-02 1.075896e-02 -4.464665e-03
2.804000e+00 6.145383e-02 -1.782290e-03 2.010503e-02 5.967154e-02 1.076194e-02 -4.431585e-03
2.808000e+00 6.992577e-02 1.840966e-03 1.212934e-02 7.176674e-02 1.076449e-02 -4.458366e-03
2.812000e+00 5.014421e-02 3.383984e-03 -1.146515e-02 5.352819e-02 1.076420e-02 -4.504909e-03
2.816000e+00 2.652075e-02 5.317828e-04 -1.770477e-02 2.705253e-02 1.076261e-02 -4.506111e-03
2.820000e+00 2.699300e-02 -2.906242e-03 3.069465e-04 2.408676e-02 1.075401e-02 -4.462501e-03
2.824000e+00 3.809526e-02 -2.123034e-03 1.683502e-02 3.597222e-02 1.073689e-02 -4.427979e-03
2.828000e+00 1.882427e-02 1.880000e-03 4.564340e-03 2.070427e-02 1.069963e-02 -4.453702e-03
2.832000e+00 -1.727134e-02 3.349580e-03 -1.817478e-02 -1.392176e-02 1.068554e-02 -4.501639e-03
2.836000e+00 -3.637731e-02 -1.436129e-05 -5.784967e-03 -3.639167e-02 1.071069e-02 -4.504187e-03
2.840000e+00 -4.318696e-02 -3.547260e-03 1.399710e-02 -4.673422e-02 1.068838e-02 -4.460770e-03
2.844000e+00 -8.213343e-02 -2.322511e-03 -7.549892e-03 -8.445594e-02 1.057231e-02 -4.432643e-03
2.848000e+00 -1.671967e-01 1.407338e-03 -3.882067e-02 -1.657894e-01 1.043715e-02 -4.461011e-03
2.852000e+00 -2.656285e-01 1.404374e-03 -2.879839e-02 -2.642241e-01 1.036806e-02 -4.509332e-03
2.856000e+00 -2.348248e-01 -3.114251e-03 3.824234e-02 -2.379390e-01 1.053663e-02 -4.504380e-03
2.860000e+00 -6.994848e-02 -4.765548e-03 1.282438e-01 -7.471403e-02 1.080906e-02 -4.456059e-03
2.864000e+00 1.109561e-01 4.657601e-04 8.900345e-02 1.114218e-01 1.093619e-02 -4.423796e-03
2.868000e+00 2.221562e-01 9.088617e-03 -4.264156e-02 2.312448e-01 1.095412e-02 -4.452741e-03
2.872000e+00 2.749554e-01 1.039718e-02 -9.417930e-02 2.853526e-01 1.096744e-02 -4.503130e-03
2.876000e+00 3.076335e-01 4.504798e-03 -6.177693e-02 3.121383e-01 1.102898e-02 -4.506063e-03
2.880000e+00 3.156117e-01 1.489956e-03 -7.892704e-03 3.171017e-01 1.105740e-02 -4.460434e-03
2.884000e+00 3.052571e-01 5.577154e-03 1.611230e-02 3.108343e-01 1.103523e-02 -4.430287e-03
2.888000e+00 2.516990e-01 9.936549e-03 8.322356e-03 2.616355e-01 1.097605e-02 -4.461299e-03
2.892000e+00 1.729710e-01 5.575877e-03 -3.113200e-02 1.785468e-01 1.092008e-02 -4.510679e-03
2.896000e+00 1.220425e-01 -3.809597e-03 -4.607743e-02 1.182329e-01 1.087157e-02 -4.509717e-03
2.900000e+00 1.108963e-01 -6.594016e-03 -2.598245e-02 1.043023e-01 1.083224e-02 -4.462357e-03
2.904000e+00 7.880372e-02 6.967897e-04 2.623934e-02 7.950051e-02 1.080146e-02 -4.434951e-03
2.908000e+00 1.837167e-02 6.412108e-03 5.106100e-02 2.478378e-02 1.077012e-02 -4.459905e-03
2.912000e+00 -4.098428e-02 1.135845e-03 1.598412e-02 -3.984843e-02 1.075006e-02 -4.505150e-03
2.916000e+00 -4.525548e-02 -9.091936e-03 -8.278736e-03 -5.434741e-02 1.075035e-02 -4.502745e-03
2.920000e+00 -2.153260e-02 -1.082264e-02 2.876589e-04 -3.235523e-02 1.074482e-02 -4.456251e-03
2.924000e+00 -8.429999e-03 -1.150079e-03 1.996084e-02 -9.580078e-03 1.073814e-02 -4.424133e-03
2.928000e+00 -2.018827e-02 7.792640e-03 2.098223e-02 -1.239563e-02 1.073477e-02 -4.450481e-03
2.932000e+00 -4.312233e-02 4.894082e-03 1.790066e-03 -3.822824e-02 1.073401e-02 -4.496831e-03
2.936000e+00 -6.482685e-02 -5.186951e-03 -8.321851e-03 -7.001380e-02 1.072900e-02 -4.499043e-03
2.940000e+00 -5.772567e-02 -8.970024e-03 8.496775e-03 -6.669570e-02 1.073213e-02 -4.450289e-03
2.944000e+00 -3.447651e-02 -1.538835e-03 1.727457e-02 -3.601535e-02 1.072838e-02 -4.417834e-03
2.948000e+00 -2.080372e-02 7.490973e-03 -4.170923e-03 -1.331275e-02 1.072775e-02 -4.443509e-03
2.952000e+00 -3.220586e-02 6.686744e-03 -1.596403e-02 -2.551912e-02 1.072838e-02 -4.486686e-03
2.956000e+00 -5.780533e-02 -2.804686e-03 -8.738933e-03 -6.061002e-02 1.072497e-02 -4.489619e-03
2.960000e+00 -6.540327e-02 -8.430692e-03 1.520229e-02 -7.383396e-02 1.072607e-02 -4.444807e-03
2.964000e+00 -4.710728e-02 -3.663373e-03 1.811387e-02 -5.077065e-02 1.071905e-02 -4.414035e-03
2.968000e+00 -2.899168e-02 4.247241e-03 -1.136732e-02 -2.474444e-02 1.071588e-02 -4.442307e-03
2.972000e+00 -3.643580e-02 4.487894e-03 -2.895574e-02 -3.194791e-02 1.071391e-02 -4.492071e-03
2.976000e+00 -6.562136e-02 -2.919471e-03 -1.910239e-02 -6.854083e-02 1.070670e-02 -4.492600e-03
2.980000e+00 -7.414822e-02 -7.218542e-03 1.194671e-02 -8.136676e-02 1.070713e-02 -4.442499e-03
2.984000e+00 -5.447574e-02 -2.426610e-03 2.606232e-02 -5.690235e-02 1.070434e-02 -4.409660e-03
2.988000e+00 -4.259937e-02 4.367581e-03 3.706115e-03 -3.823179e-02 1.069939e-02 -4.437739e-03
2.992000e+00 -5.581828e-02 2.923429e-03 -2.195266e-02 -5.289485e-02 1.069237e-02 -4.485388e-03
2.996000e+00 -7.241536e-02 -5.290793e-03 -2.100928e-02 -7.770615e-02 1.069290e-02 -4.486494e-03
3.000000e+00 -6.857324e-02 -8.244966e-03 7.938784e-03 -7.681821e-02 1.069516e-02 -4.439278e-03
3.004000e+00 -5.475323e-02 -7.918549e-04 2.710584e-02 -5.554509e-02 1.069227e-02 -4.403698e-03
3.008000e+00 -5.079949e-02 7.301285e-03 1.596631e-02 -4.349820e-02 1.069073e-02 -4.428556e-03
3.012000e+00 -6.087412e-02 4.555466e-03 -1.046155e-02 -5.631866e-02 1.069088e-02 -4.472262e-03
3.016000e+00 -7.217982e-02 -5.738617e-03 -2.047383e-02 -7.791844e-02 1.068400e-02 -4.471781e-03
3.020000e+00 -6.325305e-02 -9.610107e-03 -4.399587e-03 -7.286316e-02 1.067491e-02 -4.427498e-03
3.024000e+00 -5.325350e-02 -1.345848e-03 2.321692e-02 -5.459935e-02 1.067491e-02 -4.394419e-03
3.028000e+00 -6.242130e-02 7.627271e-03 2.319327e-02 -5.479403e-02 1.067011e-02 -4.421103e-03
3.032000e+00 -8.161579e-02 4.634278e-03 -1.045142e-02 -7.698152e-02 1.066636e-02 -4.466925e-03
3.036000e+00 -8.801649e-02 -6.644445e-03 -2.692515e-02 -9.466094e-02 1.066006e-02 -4.470002e-03
3.040000e+00 -6.956360e-02 -1.132359e-02 -1.107552e-02 -8.088718e-02 1.065616e-02 -4.423844e-03
3.044000e+00 -5.851736e-02 -2.753534e-03 1.826736e-02 -6.127089e-02 1.065280e-02 -4.390812e-03
3.048000e+00 -6.619054e-02 7.289006e-03 1.730974e-02 -5.890153e-02 1.064813e-02 -4.418459e-03
3.052000e+00 -9.331450e-02 5.020671e-03 -1.022446e-02 -8.829383e-02 1.063731e-02 -4.464328e-03
3.056000e+00 -1.005215e-01 -7.189224e-03 -2.287111e-02 -1.077107e-01 1.063371e-02 -4.463415e-03
3.060000e+00 -8.275857e-02 -1.307277e-02 -1.939159e-03 -9.583134e-02 1.063231e-02 -4.413795e-03
3.064000e+00 -6.826907e-02 -4.472650e-03 1.982816e-02 -7.274172e-02 1.062260e-02 -4.382735e-03
3.068000e+00 -7.489595e-02 7.263878e-03 1.218018e-02 -6.763207e-02 1.061962e-02 -4.411199e-03
3.072000e+00 -9.795214e-02 6.467705e-03 -8.069170e-03 -9.148443e-02 1.061789e-02 -4.459761e-03
3.076000e+00 -1.076732e-01 -5.797727e-03 -2.188614e-02 -1.134709e-01 1.061231e-02 -4.467021e-03
3.080000e+00 -9.471432e-02 -1.246371e-02 -8.305341e-03 -1.071780e-01 1.060976e-02 -4.422738e-03
3.084000e+00 -7.320928e-02 -4.252947e-03 1.321292e-02 -7.746222e-02 1.060923e-02 -4.390236e-03
3.088000e+00 -6.560636e-02 8.035444e-03 6.793928e-03 -5.757092e-02 1.061472e-02 -4.417834e-03
3.092000e+00 -7.901900e-02 8.423206e-03 -1.252912e-02 -7.059579e-02 1.061775e-02 -4.464280e-03
3.096000e+00 -8.701568e-02 -3.214065e-03 -2.024064e-02 -9.022975e-02 1.061851e-02 -4.471397e-03
3.100000e+00 -7.281686e-02 -1.063242e-02 -1.492410e-04 -8.344929e-02 1.061957e-02 -4.426441e-03
3.104000e+00 -4.970701e-02 -3.836185e-03 1.875305e-02 -5.354320e-02 1.062289e-02 -4.389899e-03
3.108000e+00 -3.727053e-02 7.575026e-03 9.025060e-03 -2.969550e-02 1.062702e-02 -4.416776e-03
3.112000e+00 -4.412712e-02 7.855168e-03 -1.337582e-02 -3.627195e-02 1.063159e-02 -4.464280e-03
3.116000e+00 -5.543451e-02 -3.472309e-03 -1.502669e-02 -5.890682e-02 1.063529e-02 -4.467069e-03
3.120000e+00 -4.246586e-02 -1.099871e-02 8.624711e-03 -5.346457e-02 1.063813e-02 -4.419469e-03
3.124000e+00 -1.372817e-02 -4.274302e-03 2.463076e-02 -1.800248e-02 1.065111e-02 -4.385187e-03
3.128000e+00 3.783647e-03 7.562491e-03 1.517259e-02 1.134614e-02 1.066544e-02 -4.409804e-03
3.132000e+00 9.977843e-04 8.177904e-03 -1.242334e-02 9.175688e-03 1.067193e-02 -4.456828e-03
3.136000e+00 -3.816545e-03 -2.927445e-03 -2.021498e-02 -6.743990e-03 1.067813e-02 -4.460963e-03
3.140000e+00 1.322958e-02 -9.876402e-03 4.641904e-03 3.353182e-03 1.069131e-02 -4.416295e-03
3.144000e+00 3.954849e-02 -2.253079e-03 2.556271e-02 3.729542e-02 1.070458e-02 -4.380235e-03
3.148000e+00 5.451182e-02 1.009966e-02 1.105706e-02 6.461148e-02 1.071867e-02 -4.404997e-03
3.152000e+00 5.161230e-02 1.059655e-02 -1.585883e-02 6.220885e-02 1.072569e-02 -4.453414e-03
3.156000e+00 5.280218e-02 -1.190405e-03 -1.994472e-02 5.161177e-02 1.074266e-02 -4.452597e-03
3.160000e+00 6.833884e-02 -8.340787e-03 4.783207e-03 5.999805e-02 1.075160e-02 -4.407929e-03
3.164000e+00 9.152607e-02 -3.566059e-04 2.089635e-02 9.116946e-02 1.075627e-02 -4.371147e-03
3.168000e+00 9.670752e-02 1.216654e-02 1.171521e-02 1.088741e-01 1.076723e-02 -4.394274e-03
3.172000e+00 8.958981e-02 1.156853e-02 -1.065181e-02 1.011583e-01 1.077608e-02 -4.443605e-03
3.176000e+00 8.165894e-02 -1.734341e-03 -2.066189e-02 7.992460e-02 1.077959e-02 -4.446202e-03
3.180000e+00 9.147153e-02 -9.721543e-03 -4.978869e-03 8.174999e-02 1.077901e-02 -4.402160e-03
3.184000e+00 1.085940e-01 -1.415220e-03 1.747101e-02 1.071787e-01 1.078213e-02 -4.367493e-03
3.188000e+00 1.083109e-01 1.173113e-02 1.373663e-02 1.200421e-01 1.079079e-02 -4.391918e-03
3.192000e+00 8.972352e-02 1.138596e-02 -1.250513e-02 1.011095e-01 1.079199e-02 -4.441105e-03
3.196000e+00 8.356550e-02 -2.500931e-03 -2.565314e-02 8.106457e-02 1.079555e-02 -4.448991e-03
3.200000e+00 9.445576e-02 -1.099980e-02 -8.493955e-03 8.345595e-02 1.079497e-02 -4.407689e-03
3.204000e+00 1.043784e-01 -2.313274e-03 1.330410e-02 1.020652e-01 1.079319e-02 -4.374321e-03
3.208000e+00 1.005588e-01 1.170100e-02 1.043903e-02 1.122598e-01 1.079622e-02 -4.397063e-03
3.212000e+00 8.190875e-02 1.156778e-02 -1.287883e-02 9.347653e-02 1.079786e-02 -4.445192e-03
3.216000e+00 7.377994e-02 -3.232244e-03 -1.972993e-02 7.054770e-02 1.079892e-02 -4.448991e-03
3.220000e+00 8.582539e-02 -1.293228e-02 -9.467966e-04 7.289311e-02 1.080137e-02 -4.404420e-03
3.224000e+00 9.881081e-02 -4.061168e-03 2.281279e-02 9.474964e-02 1.080276e-02 -4.368455e-03
3.228000e+00 9.570900e-02 1.167259e-02 1.591670e-02 1.073816e-01 1.080791e-02 -4.393265e-03
3.232000e+00 6.963368e-02 1.335905e-02 -1.258507e-02 8.299273e-02 1.079834e-02 -4.445625e-03
3.236000e+00 5.282864e-02 -1.286899e-03 -2.396634e-02 5.154175e-02 1.079045e-02 -4.447452e-03
3.240000e+00 6.429825e-02 -1.235400e-02 9.397604e-04 5.194424e-02 1.079593e-02 -4.401198e-03
3.244000e+00 8.173818e-02 -4.584279e-03 2.843421e-02 7.715390e-02 1.079988e-02 -4.363166e-03
3.248000e+00 7.191362e-02 1.165478e-02 1.555798e-02 8.356840e-02 1.079560e-02 -4.389707e-03
3.252000e+00 5.169031e-02 1.395283e-02 -1.019019e-02 6.564314e-02 1.079651e-02 -4.434903e-03
3.256000e+00 3.750788e-02 -1.429571e-03 -1.512496e-02 3.607831e-02 1.079194e-02 -4.436538e-03
3.260000e+00 5.675399e-02 -1.411361e-02 4.061405e-03 4.264039e-02 1.080026e-02 -4.389418e-03
3.264000e+00 6.900123e-02 -7.060579e-03 2.542018e-02 6.194065e-02 1.079641e-02 -4.353453e-03
3.268000e+00 6.035016e-02 9.681509e-03 1.143815e-02 7.003167e-02 1.078944e-02 -4.377975e-03
3.272000e+00 3.306987e-02 1.330360e-02 -1.338473e-02 4.637347e-02 1.078574e-02 -4.427450e-03
3.276000e+00 1.941295e-02 -1.196367e-03 -1.789828e-02 1.821658e-02 1.078781e-02 -4.431826e-03
3.280000e+00 3.567458e-02 -1.385744e-02 4.335041e-03 2.181714e-02 1.079641e-02 -4.382639e-03
3.284000e+00 5.637541e-02 -7.119617e-03 2.263999e-02 4.925579e-02 1.079704e-02 -4.344174e-03
3.288000e+00 5.503772e-02 9.829729e-03 1.129641e-02 6.486745e-02 1.079810e-02 -4.367012e-03
3.292000e+00 3.481927e-02 1.330244e-02 -1.106544e-02 4.812171e-02 1.079959e-02 -4.414853e-03
3.296000e+00 1.976198e-02 -1.648449e-03 -2.012003e-02 1.811353e-02 1.079603e-02 -4.419949e-03
3.300000e+00 3.165216e-02 -1.414291e-02 -3.872272e-03 1.750924e-02 1.079617e-02 -4.378888e-03
3.304000e+00 4.519472e-02 -6.435010e-03 1.700600e-02 3.875971e-02 1.079512e-02 -4.342683e-03
3.308000e+00 3.692086e-02 1.073519e-02 1.042090e-02 4.765606e-02 1.079483e-02 -4.363358e-03
3.312000e+00 2.046521e-02 1.320908e-02 -1.252206e-02 3.367429e-02 1.079555e-02 -4.408795e-03
3.316000e+00 1.509570e-02 -2.497536e-03 -1.805340e-02 1.259817e-02 1.080190e-02 -4.409372e-03
3.320000e+00 2.919951e-02 -1.459811e-02 5.545482e-03 1.460140e-02 1.080266e-02 -4.361002e-03
3.324000e+00 4.388567e-02 -6.122103e-03 2.201162e-02 3.776356e-02 1.080204e-02 -4.326528e-03
3.328000e+00 4.074248e-02 1.138932e-02 1.675909e-02 5.213179e-02 1.081194e-02 -4.346338e-03
3.332000e+00 2.460936e-02 1.341478e-02 -9.529206e-03 3.802414e-02 1.081469e-02 -4.397736e-03
3.336000e+00 1.764350e-02 -3.005294e-03 -2.601902e-02 1.463820e-02 1.081098e-02 -4.405862e-03
3.340000e+00 2.575360e-02 -1.513867e-02 -8.118590e-03 1.061493e-02 1.080738e-02 -4.359464e-03
3.344000e+00 3.889446e-02 -6.126325e-03 1.755384e-02 3.276814e-02 1.080723e-02 -4.321960e-03
3.348000e+00 3.598629e-02 1.194282e-02 1.244304e-02 4.792911e-02 1.081473e-02 -4.345664e-03
3.352000e+00 1.661492e-02 1.434930e-02 -1.157916e-02 3.096422e-02 1.081690e-02 -4.392880e-03
3.356000e+00 7.732188e-03 -2.723942e-03 -2.433375e-02 5.008246e-03 1.081103e-02 -4.401486e-03
3.360000e+00 2.326518e-02 -1.606836e-02 -2.678888e-03 7.196818e-03 1.081464e-02 -4.349895e-03
3.364000e+00 3.639808e-02 -7.358013e-03 2.278942e-02 2.904007e-02 1.081709e-02 -4.314844e-03
3.368000e+00 3.438677e-02 1.161870e-02 1.161578e-02 4.600548e-02 1.081844e-02 -4.342683e-03
3.372000e+00 1.441416e-02 1.491217e-02 -1.432715e-02 2.932633e-02 1.082733e-02 -4.389226e-03
3.376000e+00 8.411405e-03 -2.515926e-03 -1.989729e-02 5.895478e-03 1.082541e-02 -4.396726e-03
3.380000e+00 2.944908e-02 -1.680507e-02 -5.716222e-03 1.264401e-02 1.083137e-02 -4.353838e-03
3.384000e+00 4.088937e-02 -7.988621e-03 1.835788e-02 3.290074e-02 1.083195e-02 -4.316671e-03
3.388000e+00 3.524382e-02 1.175525e-02 8.981179e-03 4.699907e-02 1.082945e-02 -4.339606e-03
3.392000e+00 2.016368e-02 1.545901e-02 -1.267889e-02 3.562269e-02 1.083897e-02 -4.385331e-03
3.396000e+00 1.212727e-02 -2.121544e-03 -1.559497e-02 1.000572e-02 1.083930e-02 -4.390716e-03
3.400000e+00 2.586447e-02 -1.672423e-02 -2.409898e-04 9.140240e-03 1.083656e-02 -4.347203e-03
3.404000e+00 3.655268e-02 -8.030459e-03 1.660730e-02 2.852222e-02 1.083320e-02 -4.314459e-03
3.408000e+00 2.846771e-02 1.186757e-02 1.085314e-02 4.033528e-02 1.083680e-02 -4.338020e-03
3.412000e+00 1.122088e-02 1.540619e-02 -1.106142e-02 2.662707e-02 1.084243e-02 -4.388216e-03
3.416000e+00 6.725020e-03 -2.293359e-03 -2.094505e-02 4.431661e-03 1.084637e-02 -4.392495e-03
3.420000e+00 2.274806e-02 -1.664804e-02 -1.987778e-03 6.100018e-03 1.084584e-02 -4.348790e-03
3.424000e+00 4.065760e-02 -7.636514e-03 1.886460e-02 3.302109e-02 1.084704e-02 -4.310565e-03
3.428000e+00 2.978688e-02 1.232193e-02 1.408121e-02 4.210881e-02 1.084892e-02 -4.333019e-03
3.432000e+00 1.180084e-02 1.534828e-02 -9.168167e-03 2.714912e-02 1.084839e-02 -4.382014e-03
3.436000e+00 1.461579e-04 -2.727654e-03 -2.149727e-02 -2.581496e-03 1.084421e-02 -4.388841e-03
3.440000e+00 1.390641e-02 -1.683632e-02 -4.247859e-04 -2.929907e-03 1.084565e-02 -4.344078e-03
3.444000e+00 2.849723e-02 -7.313782e-03 2.344170e-02 2.118345e-02 1.084892e-02 -4.306430e-03
3.448000e+00 2.392702e-02 1.269268e-02 1.838460e-02 3.661970e-02 1.085594e-02 -4.324268e-03
3.452000e+00 9.943270e-03 1.529990e-02 -7.715062e-03 2.524317e-02 1.086031e-02 -4.373792e-03
3.456000e+00 6.071373e-03 -3.275413e-03 -1.951575e-02 2.795961e-03 1.085906e-02 -4.380811e-03
3.460000e+00 1.838112e-02 -1.730963e-02 -1.814915e-03 1.071492e-03 1.085978e-02 -4.334413e-03
3.464000e+00 3.077551e-02 -7.188857e-03 2.200470e-02 2.358665e-02 1.085930e-02 -4.296093e-03
3.468000e+00 2.256496e-02 1.333486e-02 1.386478e-02 3.589981e-02 1.085839e-02 -4.318691e-03
3.472000e+00 3.074975e-03 1.597294e-02 -1.126156e-02 1.904791e-02 1.086344e-02 -4.368118e-03
3.476000e+00 -2.361891e-03 -3.249850e-03 -1.864655e-02 -5.611741e-03 1.086488e-02 -4.376244e-03
3.480000e+00 1.461549e-02 -1.773547e-02 -4.798976e-03 -3.119978e-03 1.086709e-02 -4.333596e-03
3.484000e+00 2.802137e-02 -7.108965e-03 1.661842e-02 2.091241e-02 1.086969e-02 -4.295853e-03
3.488000e+00 2.347323e-02 1.395666e-02 1.148274e-02 3.742989e-02 1.087229e-02 -4.317152e-03
3.492000e+00 5.131614e-03 1.636980e-02 -1.592516e-02 2.150141e-02 1.087262e-02 -4.370282e-03
3.496000e+00 3.955329e-04 -3.491467e-03 -2.075363e-02 -3.095934e-03 1.087647e-02 -4.371965e-03
3.500000e+00 1.639613e-02 -1.839142e-02 -3.979946e-04 -1.995287e-03 1.087839e-02 -4.328211e-03
3.504000e+00 3.156120e-02 -7.586669e-03 1.944510e-02 2.397453e-02 1.087863e-02 -4.292102e-03
3.508000e+00 1.941212e-02 1.400781e-02 1.207522e-02 3.341993e-02 1.087926e-02 -4.314797e-03
3.512000e+00 1.684994e-03 1.631140e-02 -1.331371e-02 1.799639e-02 1.088008e-02 -4.366579e-03
3.516000e+00 -4.754533e-03 -4.060682e-03 -2.434944e-02 -8.815215e-03 1.087801e-02 -4.376388e-03
3.520000e+00 7.069971e-03 -1.904518e-02 -3.733020e-03 -1.197521e-02 1.087517e-02 -4.328452e-03
3.524000e+00 1.767126e-02 -7.872287e-03 1.934402e-02 9.798971e-03 1.087431e-02 -4.291477e-03
3.528000e+00 1.291792e-02 1.417074e-02 1.856214e-02 2.708867e-02 1.088171e-02 -4.307969e-03
3.532000e+00 -7.851531e-04 1.649015e-02 -2.693995e-03 1.570500e-02 1.089253e-02 -4.353069e-03
3.536000e+00 -2.378716e-03 -4.262405e-03 -1.493751e-02 -6.641121e-03 1.088786e-02 -4.362060e-03
3.540000e+00 1.111782e-02 -1.943097e-02 -2.374897e-03 -8.313151e-03 1.088570e-02 -4.316094e-03
3.544000e+00 1.844235e-02 -8.023697e-03 2.391851e-02 1.041865e-02 1.088450e-02 -4.275033e-03
3.548000e+00 9.410985e-03 1.423961e-02 1.705043e-02 2.365059e-02 1.088330e-02 -4.296237e-03
3.552000e+00 -1.591150e-02 1.691997e-02 -9.697097e-03 1.008467e-03 1.087469e-02 -4.342058e-03
3.556000e+00 -2.661800e-02 -3.834623e-03 -1.919846e-02 -3.045263e-02 1.086854e-02 -4.346193e-03
3.560000e+00 -1.486502e-02 -1.939902e-02 4.236456e-03 -3.426403e-02 1.086613e-02 -4.299988e-03
3.564000e+00 -1.149351e-02 -8.142756e-03 2.319112e-02 -1.963627e-02 1.085652e-02 -4.261955e-03
3.568000e+00 -2.613799e-02 1.453299e-02 1.276594e-02 -1.160500e-02 1.085421e-02 -4.283015e-03
3.572000e+00 -4.337452e-02 1.706585e-02 -9.344030e-03 -2.630868e-02 1.085531e-02 -4.331192e-03
3.576000e+00 -6.051167e-02 -4.315869e-03 -2.194949e-02 -6.482754e-02 1.083190e-02 -4.335327e-03
3.580000e+00 -6.015786e-02 -2.010038e-02 -8.905878e-03 -8.025824e-02 1.081041e-02 -4.287823e-03
3.584000e+00 -6.174073e-02 -8.440782e-03 1.811878e-02 -7.018151e-02 1.079545e-02 -4.250897e-03
3.588000e+00 -7.931382e-02 1.438670e-02 1.736352e-02 -6.492712e-02 1.079569e-02 -4.272293e-03
3.592000e+00 -9.427625e-02 1.667652e-02 -1.488697e-03 -7.759973e-02 1.081074e-02 -4.318210e-03
3.596000e+00 -8.330207e-02 -4.980424e-03 -1.021678e-02 -8.828249e-02 1.082536e-02 -4.320855e-03
3.600000e+00 -4.388923e-02 -2.061048e-02 1.917622e-03 -6.449971e-02 1.084777e-02 -4.277870e-03
3.604000e+00 -1.176256e-02 -8.371248e-03 1.979706e-02 -2.013381e-02 1.086565e-02 -4.240415e-03
3.608000e+00 -1.007241e-02 1.496567e-02 5.995519e-03 4.893257e-03 1.087007e-02 -4.261811e-03
3.612000e+00 -1.959678e-02 1.734727e-02 -2.350223e-02 -2.249507e-03 1.087012e-02 -4.310613e-03
3.616000e+00 -1.814358e-02 -4.363086e-03 -2.705513e-02 -2.250667e-02 1.087854e-02 -4.317585e-03
3.620000e+00 1.888549e-03 -1.989671e-02 1.472477e-03 -1.800816e-02 1.088969e-02 -4.270946e-03
3.624000e+00 1.977613e-02 -7.354959e-03 2.119162e-02 1.242117e-02 1.090051e-02 -4.231712e-03
3.628000e+00 2.206769e-02 1.599408e-02 1.239081e-02 3.806177e-02 1.091215e-02 -4.252243e-03
3.632000e+00 1.983776e-02 1.748387e-02 -1.272469e-02 3.732163e-02 1.092710e-02 -4.299988e-03
3.636000e+00 2.480207e-02 -5.146139e-03 -2.342592e-02 1.965593e-02 1.093359e-02 -4.310228e-03
3.640000e+00 4.486428e-02 -2.053569e-02 -9.295920e-03 2.432859e-02 1.093648e-02 -4.267917e-03
3.644000e+00 5.304595e-02 -7.259163e-03 1.212654e-02 4.578678e-02 1.093450e-02 -4.231087e-03
3.648000e+00 4.518597e-02 1.619530e-02 1.025801e-02 6.138127e-02 1.094080e-02 -4.250127e-03
3.652000e+00 2.746681e-02 1.741502e-02 -9.075320e-03 4.488182e-02 1.094455e-02 -4.296814e-03
3.656000e+00 2.899600e-02 -5.478299e-03 -1.983766e-02 2.351770e-02 1.094801e-02 -4.303353e-03
3.660000e+00 5.029867e-02 -2.088185e-02 -2.361985e-03 2.941682e-02 1.095792e-02 -4.261042e-03
3.664000e+00 6.091599e-02 -7.428611e-03 2.089488e-02 5.348738e-02 1.095777e-02 -4.223971e-03
3.668000e+00 4.529081e-02 1.629473e-02 9.426280e-03 6.158554e-02 1.095225e-02 -4.246233e-03
3.672000e+00 2.403836e-02 1.755952e-02 -1.513230e-02 4.159788e-02 1.094984e-02 -4.295612e-03
3.676000e+00 1.887285e-02 -5.613591e-03 -2.171939e-02 1.325926e-02 1.094739e-02 -4.303497e-03
3.680000e+00 2.871488e-02 -2.112888e-02 -4.703874e-03 7.586002e-03 1.094282e-02 -4.262820e-03
3.684000e+00 3.176857e-02 -7.308854e-03 1.646862e-02 2.445972e-02 1.093888e-02 -4.227577e-03
3.688000e+00 1.611362e-02 1.681693e-02 1.355031e-02 3.293054e-02 1.093772e-02 -4.247098e-03
3.692000e+00 -1.079232e-02 1.789211e-02 -1.292492e-02 7.099798e-03 1.092205e-02 -4.296670e-03
3.696000e+00 -4.375567e-02 -5.749935e-03 -3.264921e-02 -4.950560e-02 1.086854e-02 -4.306959e-03
3.700000e+00 -6.679947e-02 -2.171431e-02 -1.874475e-02 -8.851378e-02 1.082118e-02 -4.262820e-03
3.704000e+00 -7.269751e-02 -8.102369e-03 2.587959e-02 -8.079988e-02 1.083070e-02 -4.225414e-03
3.708000e+00 -9.249941e-02 1.624105e-02 3.898621e-02 -7.625836e-02 1.083425e-02 -4.248492e-03
3.712000e+00 -1.574343e-01 1.759296e-02 -1.782312e-02 -1.398414e-01 1.074704e-02 -4.303353e-03
3.716000e+00 -2.372820e-01 -6.894086e-03 -6.535776e-02 -2.441760e-01 1.061616e-02 -4.316287e-03
3.720000e+00 -3.035179e-01 -2.531123e-02 -3.154966e-02 -3.288292e-01 1.051682e-02 -4.275274e-03
3.724000e+00 -2.911336e-01 -1.313954e-02 4.844345e-02 -3.042732e-01 1.059746e-02 -4.233011e-03
3.728000e+00 -1.527275e-01 1.379700e-02 1.246325e-01 -1.389305e-01 1.089099e-02 -4.249021e-03
3.732000e+00 3.123618e-02 1.934365e-02 1.046918e-01 5.057983e-02 1.112563e-02 -4.296237e-03
3.736000e+00 1.768806e-01 -1.010525e-03 -2.718877e-02 1.758700e-01 1.118578e-02 -4.305997e-03
3.740000e+00 2.774876e-01 -1.647791e-02 -9.490354e-02 2.610097e-01 1.117606e-02 -4.265898e-03
3.744000e+00 3.466406e-01 -2.850146e-03 -5.237154e-02 3.437905e-01 1.121905e-02 -4.228827e-03
3.748000e+00 3.374568e-01 2.700099e-02 -4.696656e-03 3.644578e-01 1.125270e-02 -4.247291e-03
3.752000e+00 2.736479e-01 3.556511e-02 -1.860792e-02 3.092130e-01 1.122482e-02 -4.297439e-03
3.756000e+00 2.043756e-01 1.019298e-02 -2.362274e-02 2.145686e-01 1.115943e-02 -4.309315e-03
3.760000e+00 1.571258e-01 -2.017521e-02 -3.708588e-03 1.369506e-01 1.109918e-02 -4.269023e-03
3.764000e+00 1.250232e-01 -1.883257e-02 9.142429e-03 1.061907e-01 1.105403e-02 -4.228299e-03
3.768000e+00 9.235850e-02 9.470018e-03 -1.070888e-02 1.018285e-01 1.100980e-02 -4.245223e-03
3.772000e+00 3.534391e-02 2.464707e-02 -2.159307e-02 5.999098e-02 1.097446e-02 -4.292631e-03
3.776000e+00 -2.635949e-02 3.686609e-03 1.115841e-02 -2.267288e-02 1.094498e-02 -4.300949e-03
3.780000e+00 -5.480228e-02 -2.715246e-02 3.814525e-02 -8.195474e-02 1.092311e-02 -4.260946e-03
3.784000e+00 -5.235324e-02 -2.684340e-02 3.830919e-02 -7.919664e-02 1.090840e-02 -4.219788e-03
3.788000e+00 -4.818803e-02 2.085809e-03 1.243780e-02 -4.610222e-02 1.090686e-02 -4.233731e-03
3.792000e+00 -6.542176e-02 1.957158e-02 -1.035132e-02 -4.585018e-02 1.090719e-02 -4.282005e-03
3.796000e+00 -8.105880e-02 3.680757e-03 -1.428362e-02 -7.737804e-02 1.090359e-02 -4.294410e-03
3.800000e+00 -7.308800e-02 -1.969808e-02 4.306973e-03 -9.278608e-02 1.089820e-02 -4.254358e-03
3.804000e+00 -6.122887e-02 -1.542610e-02 2.478880e-02 -7.665496e-02 1.089272e-02 -4.216230e-03
3.808000e+00 -7.605625e-02 1.083207e-02 2.058442e-02 -6.522418e-02 1.089474e-02 -4.232385e-03
3.812000e+00 -9.565391e-02 2.161167e-02 -6.461876e-03 -7.404225e-02 1.089989e-02 -4.278399e-03
3.816000e+00 -9.035171e-02 1.976128e-03 -3.272153e-02 -8.837558e-02 1.089368e-02 -4.290323e-03
3.820000e+00 -5.866479e-02 -1.927910e-02 -1.800211e-02 -7.794389e-02 1.089195e-02 -4.245127e-03
3.824000e+00 -4.718542e-02 -1.173290e-02 2.343660e-02 -5.891832e-02 1.089287e-02 -4.204018e-03
3.828000e+00 -7.350171e-02 1.327714e-02 3.427804e-02 -6.022457e-02 1.089368e-02 -4.219356e-03
3.832000e+00 -1.026749e-01 1.876922e-02 4.063804e-05 -8.390570e-02 1.088839e-02 -4.266667e-03
3.836000e+00 -9.034937e-02 -5.416472e-03 -3.003825e-02 -9.576584e-02 1.088450e-02 -4.271524e-03
3.840000e+00 -5.366674e-02 -2.662583e-02 -1.536836e-02 -8.029257e-02 1.088209e-02 -4.228923e-03
3.844000e+00 -4.444008e-02 -1.443934e-02 2.023278e-02 -5.887942e-02 1.088041e-02 -4.188680e-03
3.848000e+00 -7.918702e-02 1.579242e-02 2.953447e-02 -6.339460e-02 1.087993e-02 -4.202864e-03
3.852000e+00 -1.030011e-01 2.212045e-02 1.721356e-03 -8.088063e-02 1.088046e-02 -4.249743e-03
3.856000e+00 -9.232902e-02 -5.469484e-03 -2.346741e-02 -9.779850e-02 1.087786e-02 -4.259407e-03
3.860000e+00 -5.929474e-02 -3.045951e-02 -1.184677e-02 -8.975425e-02 1.087431e-02 -4.215749e-03
3.864000e+00 -4.657623e-02 -1.835222e-02 1.362053e-02 -6.492846e-02 1.087229e-02 -4.174977e-03
3.868000e+00 -7.139612e-02 1.599517e-02 1.276766e-02 -5.540095e-02 1.086849e-02 -4.196421e-03
3.872000e+00 -1.013801e-01 2.742034e-02 -9.068677e-03 -7.395974e-02 1.086714e-02 -4.241809e-03
3.876000e+00 -1.019812e-01 1.175272e-03 -1.561492e-02 -1.008059e-01 1.086719e-02 -4.246857e-03
3.880000e+00 -7.120489e-02 -2.670795e-02 -1.620194e-03 -9.791285e-02 1.086431e-02 -4.205604e-03
3.884000e+00 -5.610533e-02 -1.772341e-02 1.404223e-02 -7.382873e-02 1.085921e-02 -4.163629e-03
3.888000e+00 -6.891753e-02 1.512553e-02 6.306819e-03 -5.379200e-02 1.085844e-02 -4.182381e-03
3.892000e+00 -9.082484e-02 2.615787e-02 -1.429793e-02 -6.466697e-02 1.085709e-02 -4.234837e-03
3.896000e+00 -9.910273e-02 -1.885011e-04 -1.718512e-02 -9.929123e-02 1.085185e-02 -4.243540e-03
3.900000e+00 -8.500718e-02 -2.844981e-02 -2.071981e-03 -1.134570e-01 1.084065e-02 -4.203200e-03
3.904000e+00 -6.483534e-02 -2.038911e-02 1.356437e-02 -8.522446e-02 1.084195e-02 -4.162860e-03
3.908000e+00 -7.290039e-02 1.212305e-02 5.510622e-03 -6.077735e-02 1.084123e-02 -4.180938e-03
3.912000e+00 -9.251214e-02 2.377253e-02 -1.840191e-02 -6.873960e-02 1.083834e-02 -4.231616e-03
3.916000e+00 -9.706034e-02 -1.103246e-03 -1.690680e-02 -9.816359e-02 1.083690e-02 -4.238924e-03
3.920000e+00 -8.534703e-02 -2.787387e-02 1.983256e-04 -1.132209e-01 1.082397e-02 -4.203248e-03
3.924000e+00 -7.449615e-02 -1.945813e-02 1.346920e-02 -9.395428e-02 1.081709e-02 -4.166659e-03
3.928000e+00 -8.565999e-02 1.181084e-02 5.494080e-03 -7.384915e-02 1.081771e-02 -4.184689e-03
3.932000e+00 -1.052547e-01 2.223239e-02 -1.729581e-02 -8.302232e-02 1.080954e-02 -4.235270e-03
3.936000e+00 -1.089577e-01 -1.779488e-03 -2.327794e-02 -1.107372e-01 1.080329e-02 -4.245127e-03
3.940000e+00 -9.513073e-02 -2.562166e-02 3.150948e-04 -1.207524e-01 1.079872e-02 -4.204690e-03
3.944000e+00 -8.676254e-02 -1.559523e-02 2.156565e-02 -1.023578e-01 1.078930e-02 -4.168053e-03
3.948000e+00 -9.882836e-02 1.378791e-02 1.194325e-02 -8.504044e-02 1.078815e-02 -4.184929e-03
3.952000e+00 -1.122476e-01 2.064424e-02 -1.075666e-02 -9.160336e-02 1.079266e-02 -4.237193e-03
3.956000e+00 -1.077211e-01 -5.190642e-03 -2.181342e-02 -1.129118e-01 1.078502e-02 -4.252387e-03
3.960000e+00 -9.091709e-02 -2.717001e-02 -1.153012e-02 -1.180871e-01 1.077887e-02 -4.216038e-03
3.964000e+00 -7.947931e-02 -1.374730e-02 1.706596e-02 -9.322661e-02 1.078175e-02 -4.178679e-03
3.968000e+00 -8.902743e-02 1.689585e-02 1.787135e-02 -7.213158e-02 1.078680e-02 -4.196180e-03
3.972000e+00 -1.016528e-01 2.254870e-02 -9.785644e-03 -7.910405e-02 1.078978e-02 -4.245896e-03
3.976000e+00 -8.855412e-02 -5.189259e-03 -2.295856e-02 -9.374338e-02 1.079074e-02 -4.256715e-03
3.980000e+00 -5.630942e-02 -2.819645e-02 -5.420516e-03 -8.450587e-02 1.079343e-02 -4.216951e-03
3.984000e+00 -4.688413e-02 -1.400075e-02 2.052619e-02 -6.088488e-02 1.079089e-02 -4.178054e-03
3.988000e+00 -6.201488e-02 1.780790e-02 2.039434e-02 -4.420698e-02 1.079747e-02 -4.196853e-03
3.992000e+00 -6.892644e-02 2.302623e-02 -1.493780e-03 -4.590021e-02 1.081286e-02 -4.247098e-03
3.996000e+00 -5.012251e-02 -5.854584e-03 -1.717364e-02 -5.597709e-02 1.082430e-02 -4.258012e-03
4.000000e+00 -1.180436e-02 -2.863062e-02 -6.020223e-03 -4.043498e-02 1.082959e-02 -4.217480e-03
4.004000e+00 1.033839e-02 -1.258591e-02 1.652452e-02 -2.247522e-03 1.084233e-02 -4.178390e-03
4.008000e+00 2.425121e-03 2.151295e-02 2.396603e-02 2.393807e-02 1.086147e-02 -4.192190e-03
4.012000e+00 -3.459656e-03 2.759404e-02 -2.061365e-03 2.413438e-02 1.087522e-02 -4.243732e-03
4.016000e+00 1.476881e-02 -1.585114e-03 -2.295427e-02 1.318370e-02 1.088556e-02 -4.258253e-03
4.020000e+00 4.921235e-02 -2.530685e-02 -8.525257e-03 2.390550e-02 1.089363e-02 -4.218874e-03
4.024000e+00 6.843447e-02 -1.017518e-02 1.515485e-02 5.825929e-02 1.090484e-02 -4.179304e-03
4.028000e+00 5.550072e-02 2.419656e-02 1.495519e-02 7.969728e-02 1.091421e-02 -4.195796e-03
4.032000e+00 4.338368e-02 3.082496e-02 -1.034638e-02 7.420864e-02 1.092181e-02 -4.246857e-03
4.036000e+00 5.405703e-02 4.637453e-04 -1.990609e-02 5.452078e-02 1.092763e-02 -4.254839e-03
4.040000e+00 8.270733e-02 -2.580115e-02 -1.246053e-03 5.690619e-02 1.093220e-02 -4.211133e-03
4.044000e+00 9.661445e-02 -1.230920e-02 2.023849e-02 8.430525e-02 1.093498e-02 -4.173005e-03
4.048000e+00 8.086188e-02 2.147912e-02 1.639615e-02 1.023410e-01 1.094244e-02 -4.188680e-03
4.052000e+00 6.297441e-02 2.785193e-02 -7.137134e-03 9.082634e-02 1.094777e-02 -4.240607e-03
4.056000e+00 7.116375e-02 -2.656030e-03 -1.920258e-02 6.850772e-02 1.095051e-02 -4.252868e-03
4.060000e+00 9.124207e-02 -2.786002e-02 -5.368498e-03 6.338205e-02 1.095099e-02 -4.213682e-03
4.064000e+00 9.966376e-02 -1.291812e-02 1.494523e-02 8.674565e-02 1.095051e-02 -4.176467e-03
4.068000e+00 8.279053e-02 2.144834e-02 9.449763e-03 1.042389e-01 1.095532e-02 -4.194642e-03
4.072000e+00 6.604564e-02 2.802377e-02 -1.237993e-02 9.406940e-02 1.096340e-02 -4.247050e-03
4.076000e+00 7.052914e-02 -1.924884e-03 -2.005353e-02 6.860425e-02 1.096359e-02 -4.258349e-03
4.080000e+00 8.712832e-02 -2.673724e-02 -6.071394e-03 6.039107e-02 1.095782e-02 -4.216663e-03
4.084000e+00 9.205273e-02 -1.227153e-02 1.430217e-02 7.978120e-02 1.095403e-02 -4.180746e-03
4.088000e+00 7.368866e-02 2.058345e-02 1.349052e-02 9.427211e-02 1.095619e-02 -4.196517e-03
4.092000e+00 5.419384e-02 2.568633e-02 -7.862967e-03 7.988017e-02 1.096133e-02 -4.245367e-03
4.096000e+00 6.102485e-02 -3.855500e-03 -1.696090e-02 5.716935e-02 1.096503e-02 -4.260321e-03
4.100000e+00 7.936178e-02 -2.633662e-02 4.601845e-04 5.302517e-02 1.096648e-02 -4.216326e-03
4.104000e+00 7.915916e-02 -1.016554e-02 1.863169e-02 6.899363e-02 1.095830e-02 -4.178727e-03
4.108000e+00 6.121021e-02 2.161862e-02 7.857808e-03 8.282883e-02 1.095282e-02 -4.202912e-03
4.112000e+00 4.040037e-02 2.463098e-02 -1.298348e-02 6.503135e-02 1.095566e-02 -4.251426e-03
4.116000e+00 4.236657e-02 -5.108116e-03 -1.564161e-02 3.725846e-02 1.095811e-02 -4.258301e-03
4.120000e+00 5.968742e-02 -2.596786e-02 8.620613e-04 3.371956e-02 1.095268e-02 -4.217288e-03
4.124000e+00 6.271890e-02 -9.759935e-03 1.977078e-02 5.295897e-02 1.095186e-02 -4.179689e-03
4.128000e+00 4.422199e-02 1.872460e-02 1.878856e-02 6.294658e-02 1.095162e-02 -4.196372e-03
4.132000e+00 3.138420e-02 1.780204e-02 -8.946446e-03 4.918624e-02 1.095003e-02 -4.246857e-03
4.136000e+00 3.404427e-02 -1.007746e-02 -2.141586e-02 2.396680e-02 1.095037e-02 -4.257772e-03
4.140000e+00 4.306913e-02 -2.379004e-02 -1.389354e-03 1.927908e-02 1.094835e-02 -4.217288e-03
4.144000e+00 3.894898e-02 -2.886031e-03 2.045771e-02 3.606294e-02 1.094224e-02 -4.177717e-03
4.148000e+00 2.413662e-02 2.326279e-02 1.602750e-02 4.739941e-02 1.094503e-02 -4.194065e-03
4.152000e+00 1.684550e-02 1.725155e-02 -7.869783e-03 3.409704e-02 1.094412e-02 -4.246857e-03
4.156000e+00 2.146433e-02 -1.291045e-02 -2.384596e-02 8.553882e-03 1.094249e-02 -4.260176e-03
4.160000e+00 2.677024e-02 -2.536768e-02 -6.093538e-03 1.402556e-03 1.093869e-02 -4.218538e-03
4.164000e+00 2.444098e-02 -2.840236e-03 1.752393e-02 2.160074e-02 1.093311e-02 -4.178775e-03
4.168000e+00 1.096622e-02 2.400487e-02 1.573599e-02 3.497108e-02 1.093657e-02 -4.194930e-03
4.172000e+00 2.439028e-03 1.813088e-02 -4.796988e-03 2.056991e-02 1.093888e-02 -4.243540e-03
4.176000e+00 7.225364e-03 -1.322686e-02 -2.052097e-02 -6.001497e-03 1.093296e-02 -4.257916e-03
4.180000e+00 2.083333e-02 -2.766657e-02 -6.745637e-03 -6.833237e-03 1.093604e-02 -4.217673e-03
4.184000e+00 1.643907e-02 -5.294736e-03 2.005923e-02 1.114434e-02 1.093022e-02 -4.176659e-03
4.188000e+00 2.852840e-03 2.351876e-02 1.681242e-02 2.637161e-02 1.092998e-02 -4.188006e-03
4.192000e+00 -7.008747e-03 1.978452e-02 -7.428464e-03 1.277577e-02 1.093287e-02 -4.242482e-03
4.196000e+00 1.844181e-04 -1.145213e-02 -1.840771e-02 -1.126771e-02 1.093349e-02 -4.257147e-03
4.200000e+00 1.025140e-02 -2.716798e-02 -6.190097e-03 -1.691658e-02 1.093359e-02 -4.218105e-03
4.204000e+00 1.500999e-02 -5.446760e-03 1.562400e-02 9.563229e-03 1.093585e-02 -4.178150e-03
4.208000e+00 7.246155e-03 2.377662e-02 1.437524e-02 3.102278e-02 1.094311e-02 -4.194498e-03
4.212000e+00 -2.506879e-03 2.040481e-02 -1.156988e-02 1.789793e-02 1.094066e-02 -4.247675e-03
4.216000e+00 -1.351888e-03 -1.053193e-02 -2.659591e-02 -1.188382e-02 1.093417e-02 -4.261282e-03
4.220000e+00 1.301233e-02 -2.596407e-02 -6.260447e-03 -1.295173e-02 1.093787e-02 -4.219547e-03
4.224000e+00 1.858650e-02 -4.803842e-03 1.932797e-02 1.378266e-02 1.094585e-02 -4.183631e-03
4.228000e+00 1.040325e-02 2.310601e-02 1.770572e-02 3.350925e-02 1.095350e-02 -4.199690e-03
4.232000e+00 3.232004e-03 1.859710e-02 -1.065111e-02 2.182911e-02 1.095268e-02 -4.249021e-03
4.236000e+00 1.216385e-02 -1.192260e-02 -2.290700e-02 2.412450e-04 1.095176e-02 -4.259840e-03
4.240000e+00 2.657507e-02 -2.596390e-02 -3.866754e-03 6.111644e-04 1.095537e-02 -4.221663e-03
4.244000e+00 2.407581e-02 -3.980873e-03 1.965497e-02 2.009494e-02 1.095330e-02 -4.182525e-03
4.248000e+00 9.820623e-03 2.325774e-02 1.550955e-02 3.307836e-02 1.095311e-02 -4.197238e-03
4.252000e+00 5.075766e-03 1.768415e-02 -6.983990e-03 2.275992e-02 1.095628e-02 -4.247242e-03
4.256000e+00 1.193643e-02 -1.300030e-02 -1.718843e-02 -1.063872e-03 1.096023e-02 -4.261907e-03
4.260000e+00 1.875841e-02 -2.592554e-02 -1.958206e-03 -7.167131e-03 1.095556e-02 -4.220028e-03
4.264000e+00 1.731457e-02 -2.935428e-03 1.512844e-02 1.437914e-02 1.095162e-02 -4.180409e-03
4.268000e+00 9.462261e-03 2.427037e-02 1.555749e-02 3.373263e-02 1.095710e-02 -4.196228e-03
4.272000e+00 6.755382e-03 1.786540e-02 -3.143573e-03 2.462078e-02 1.096821e-02 -4.245127e-03
4.276000e+00 1.135527e-02 -1.320764e-02 -1.699336e-02 -1.852363e-03 1.096528e-02 -4.260561e-03
4.280000e+00 2.010129e-02 -2.585826e-02 -7.756781e-03 -5.756966e-03 1.096027e-02 -4.219259e-03
4.284000e+00 1.830660e-02 -2.305533e-03 1.697934e-02 1.600107e-02 1.096018e-02 -4.178102e-03
4.288000e+00 6.380142e-03 2.494428e-02 1.545041e-02 3.132443e-02 1.095917e-02 -4.196036e-03
4.292000e+00 -1.554755e-03 1.858790e-02 -9.873657e-03 1.703314e-02 1.096220e-02 -4.246714e-03
4.296000e+00 3.684087e-03 -1.266081e-02 -2.062443e-02 -8.976724e-03 1.096143e-02 -4.260994e-03
4.300000e+00 1.124577e-02 -2.591646e-02 -5.680839e-03 -1.467068e-02 1.095624e-02 -4.221471e-03
4.304000e+00 7.956235e-03 -2.735396e-03 1.682182e-02 5.220839e-03 1.095542e-02 -4.182141e-03
4.308000e+00 -9.925466e-04 2.476441e-02 1.626925e-02 2.377186e-02 1.096350e-02 -4.196853e-03
4.312000e+00 -4.610997e-03 1.845849e-02 -8.264553e-03 1.384750e-02 1.096335e-02 -4.248011e-03
4.316000e+00 6.193035e-03 -1.307244e-02 -2.350841e-02 -6.879407e-03 1.096604e-02 -4.260609e-03
4.320000e+00 1.399331e-02 -2.644094e-02 -1.207220e-03 -1.244763e-02 1.096518e-02 -4.217576e-03
4.324000e+00 1.665073e-02 -3.360689e-03 2.135180e-02 1.329004e-02 1.096898e-02 -4.179304e-03
4.328000e+00 2.998814e-03 2.470862e-02 1.642374e-02 2.770743e-02 1.097056e-02 -4.196276e-03
4.332000e+00 -3.234961e-03 1.880600e-02 -1.028445e-02 1.557104e-02 1.096965e-02 -4.245367e-03
4.336000e+00 5.131571e-03 -1.296747e-02 -2.314896e-02 -7.835901e-03 1.096888e-02 -4.260272e-03
4.340000e+00 1.357919e-02 -2.655123e-02 -3.479217e-03 -1.297204e-02 1.096734e-02 -4.217480e-03
4.344000e+00 8.659339e-03 -3.034004e-03 2.160920e-02 5.625335e-03 1.096494e-02 -4.173678e-03
4.348000e+00 -1.261331e-03 2.518381e-02 1.783780e-02 2.392248e-02 1.096816e-02 -4.191083e-03
4.352000e+00 -5.328733e-03 1.903832e-02 -6.495059e-03 1.370958e-02 1.097489e-02 -4.243732e-03
4.356000e+00 1.027548e-03 -1.335609e-02 -1.991271e-02 -1.232854e-02 1.097475e-02 -4.258974e-03
4.360000e+00 1.286753e-02 -2.723338e-02 -9.222056e-03 -1.436585e-02 1.097311e-02 -4.220125e-03
4.364000e+00 1.041003e-02 -2.993750e-03 1.389979e-02 7.416277e-03 1.096917e-02 -4.178198e-03
4.368000e+00 -8.301790e-04 2.566373e-02 1.483648e-02 2.483355e-02 1.097254e-02 -4.191180e-03
4.372000e+00 -5.517772e-03 1.911615e-02 -6.656482e-03 1.359837e-02 1.097807e-02 -4.244502e-03
4.376000e+00 4.346757e-04 -1.364699e-02 -2.071066e-02 -1.321231e-02 1.097581e-02 -4.261330e-03
4.380000e+00 6.273313e-03 -2.752762e-02 -9.511472e-03 -2.125430e-02 1.096903e-02 -4.222048e-03
4.384000e+00 4.499306e-03 -3.491756e-03 1.665394e-02 1.007550e-03 1.096797e-02 -4.175602e-03
4.388000e+00 -6.302333e-03 2.490150e-02 2.002177e-02 1.859916e-02 1.097023e-02 -4.187958e-03
4.392000e+00 -1.173337e-02 1.834025e-02 -4.925066e-03 6.606880e-03 1.097047e-02 -4.240126e-03
4.396000e+00 -8.644703e-03 -1.413621e-02 -1.663987e-02 -2.278091e-02 1.096864e-02 -4.250512e-03
4.400000e+00 4.647667e-04 -2.796608e-02 -1.221412e-04 -2.750132e-02 1.096547e-02 -4.208297e-03
4.404000e+00 -3.461058e-03 -4.039135e-03 1.850788e-02 -7.500193e-03 1.095931e-02 -4.172092e-03
4.408000e+00 -1.743642e-02 2.465077e-02 1.487799e-02 7.214342e-03 1.096451e-02 -4.189738e-03
4.412000e+00 -2.649965e-02 1.846009e-02 -7.731711e-03 -8.039562e-03 1.096287e-02 -4.238251e-03
4.416000e+00 -1.656851e-02 -1.352688e-02 -2.494907e-02 -3.009539e-02 1.096215e-02 -4.253781e-03
4.420000e+00 -6.672566e-03 -2.618394e-02 -6.676328e-03 -3.285651e-02 1.096042e-02 -4.213297e-03
4.424000e+00 -1.181488e-02 -1.968181e-03 1.722922e-02 -1.378306e-02 1.095782e-02 -4.172188e-03
4.428000e+00 -2.340793e-02 2.568917e-02 1.519481e-02 2.281239e-03 1.095854e-02 -4.187526e-03
4.432000e+00 -2.376818e-02 1.834247e-02 -8.349293e-03 -5.425711e-03 1.096604e-02 -4.237145e-03
4.436000e+00 -1.819583e-02 -1.399669e-02 -1.849797e-02 -3.219253e-02 1.096056e-02 -4.250031e-03
4.440000e+00 -7.488677e-03 -2.693508e-02 -6.544893e-03 -3.442376e-02 1.096018e-02 -4.210364e-03
4.444000e+00 -8.146506e-03 -2.542744e-03 2.009758e-02 -1.068925e-02 1.096475e-02 -4.169495e-03
4.448000e+00 -1.586416e-02 2.489788e-02 1.775729e-02 9.033711e-03 1.096806e-02 -4.184256e-03
4.452000e+00 -1.893553e-02 1.737567e-02 -1.055360e-02 -1.559862e-03 1.096879e-02 -4.236088e-03
4.456000e+00 -1.425804e-02 -1.478323e-02 -2.530764e-02 -2.904126e-02 1.096176e-02 -4.254310e-03
4.460000e+00 -1.393217e-02 -2.697712e-02 -9.354773e-03 -4.090928e-02 1.095042e-02 -4.212576e-03
4.464000e+00 -2.414725e-02 -1.905004e-03 1.524854e-02 -2.605225e-02 1.094210e-02 -4.169640e-03
4.468000e+00 -4.321038e-02 2.599632e-02 1.335094e-02 -1.721405e-02 1.093032e-02 -4.188103e-03
4.472000e+00 -5.555643e-02 1.811611e-02 -1.130431e-02 -3.744032e-02 1.092417e-02 -4.241906e-03
4.476000e+00 -4.966651e-02 -1.494936e-02 -1.764324e-02 -6.461587e-02 1.093239e-02 -4.255705e-03
4.480000e+00 -3.690557e-02 -2.788086e-02 3.196662e-03 -6.478642e-02 1.093450e-02 -4.212191e-03
4.484000e+00 -4.623922e-02 -2.843553e-03 1.502896e-02 -4.908277e-02 1.090840e-02 -4.170745e-03
4.488000e+00 -7.281191e-02 2.557424e-02 7.290864e-03 -4.723767e-02 1.088363e-02 -4.179544e-03
4.492000e+00 -8.902851e-02 1.761439e-02 -6.742756e-03 -7.141413e-02 1.087421e-02 -4.233972e-03
4.496000e+00 -9.337892e-02 -1.583696e-02 -1.361187e-02 -1.092159e-01 1.086431e-02 -4.252724e-03
4.500000e+00 -9.467461e-02 -2.821898e-02 2.406159e-03 -1.228936e-01 1.086445e-02 -4.207672e-03
4.504000e+00 -8.325379e-02 -2.641175e-03 2.868213e-02 -8.589497e-02 1.088056e-02 -4.167380e-03
4.508000e+00 -7.267488e-02 2.515506e-02 2.569407e-02 -4.751982e-02 1.090301e-02 -4.182525e-03
4.512000e+00 -6.084228e-02 1.681480e-02 -7.902675e-03 -4.402748e-02 1.091671e-02 -4.235414e-03
4.516000e+00 -3.653048e-02 -1.587419e-02 -3.046784e-02 -5.240467e-02 1.091873e-02 -4.250464e-03
4.520000e+00 -2.071176e-02 -2.709549e-02 -1.569152e-02 -4.780725e-02 1.091633e-02 -4.209787e-03
4.524000e+00 -2.390167e-02 -4.374847e-04 1.484978e-02 -2.433915e-02 1.091897e-02 -4.169399e-03
4.528000e+00 -3.592117e-02 2.776308e-02 2.032361e-02 -8.158093e-03 1.092763e-02 -4.184208e-03
4.532000e+00 -2.888523e-02 1.838331e-02 -6.509428e-03 -1.050191e-02 1.094220e-02 -4.237338e-03
4.536000e+00 -5.094715e-03 -1.584125e-02 -2.225663e-02 -2.093596e-02 1.095532e-02 -4.252820e-03
4.540000e+00 1.778164e-02 -2.813682e-02 -8.645345e-03 -1.035519e-02 1.096350e-02 -4.213633e-03
4.544000e+00 2.306769e-02 -1.501841e-03 1.267184e-02 2.156585e-02 1.096994e-02 -4.172572e-03
4.548000e+00 1.636000e-02 2.751931e-02 1.119155e-02 4.387931e-02 1.097513e-02 -4.189881e-03
4.552000e+00 2.094549e-02 1.898408e-02 -8.724361e-03 3.992957e-02 1.098590e-02 -4.235126e-03
4.556000e+00 3.137976e-02 -1.535063e-02 -1.672162e-02 1.602912e-02 1.098763e-02 -4.247820e-03
4.560000e+00 4.425410e-02 -2.830484e-02 -4.577942e-03 1.594925e-02 1.098691e-02 -4.212624e-03
4.564000e+00 3.613812e-02 -2.061918e-03 1.759748e-02 3.407620e-02 1.098590e-02 -4.170169e-03
4.568000e+00 2.471112e-02 2.669358e-02 1.475661e-02 5.140470e-02 1.098831e-02 -4.186323e-03
4.572000e+00 2.126907e-02 1.845091e-02 -1.026948e-02 3.971999e-02 1.098456e-02 -4.238059e-03
4.576000e+00 2.097732e-02 -1.508210e-02 -2.299605e-02 5.895218e-03 1.097566e-02 -4.252002e-03
4.580000e+00 2.569121e-02 -2.732876e-02 -3.674916e-03 -1.637553e-03 1.097633e-02 -4.212287e-03
4.584000e+00 2.083586e-02 -1.381580e-03 2.252283e-02 1.945428e-02 1.097585e-02 -4.171082e-03
4.588000e+00 9.567304e-03 2.660683e-02 1.701554e-02 3.617413e-02 1.097696e-02 -4.183920e-03
4.592000e+00 7.015442e-03 1.793230e-02 -6.029410e-03 2.494775e-02 1.097768e-02 -4.233154e-03
4.596000e+00 1.406145e-02 -1.562578e-02 -1.936143e-02 -1.564325e-03 1.097307e-02 -4.251281e-03
4.600000e+00 1.047621e-02 -2.744149e-02 -7.779199e-03 -1.696528e-02 1.095926e-02 -4.213297e-03
4.604000e+00 -1.602214e-02 -1.056992e-03 1.089970e-02 -1.707913e-02 1.092479e-02 -4.170409e-03
4.608000e+00 -6.009003e-02 2.674192e-02 3.262015e-03 -3.334811e-02 1.087512e-02 -4.184545e-03
4.612000e+00 -8.695122e-02 1.744306e-02 -1.204348e-02 -6.950816e-02 1.086075e-02 -4.235318e-03
4.616000e+00 -8.708231e-02 -1.622852e-02 -1.301918e-03 -1.033108e-01 1.087445e-02 -4.250175e-03
4.620000e+00 -1.085607e-01 -2.829730e-02 2.155819e-03 -1.368580e-01 1.082310e-02 -4.218346e-03
4.624000e+00 -1.828215e-01 -2.415125e-03 -1.863986e-02 -1.852366e-01 1.069698e-02 -4.183150e-03
4.628000e+00 -2.871217e-01 2.501983e-02 -2.912265e-02 -2.621018e-01 1.057034e-02 -4.200171e-03
4.632000e+00 -3.518232e-01 1.522148e-02 -1.373708e-02 -3.366017e-01 1.053067e-02 -4.253349e-03
4.636000e+00 -2.704058e-01 -1.721940e-02 4.561555e-02 -2.876252e-01 1.073045e-02 -4.263542e-03
4.640000e+00 -7.399868e-02 -2.740028e-02 1.254774e-01 -1.013990e-01 1.102432e-02 -4.219356e-03
4.644000e+00 1.233221e-01 -4.704121e-03 8.405617e-02 1.186180e-01 1.118630e-02 -4.178150e-03
4.648000e+00 2.387547e-01 2.144933e-02 -3.873513e-02 2.602040e-01 1.120631e-02 -4.191421e-03
4.652000e+00 3.198959e-01 1.737505e-02 -9.667560e-02 3.372710e-01 1.123491e-02 -4.238636e-03
4.656000e+00 3.596967e-01 -2.932634e-03 -6.188754e-02 3.567641e-01 1.128189e-02 -4.255705e-03
4.660000e+00 3.279550e-01 -1.964688e-03 -2.301712e-02 3.259904e-01 1.126535e-02 -4.220701e-03
4.664000e+00 2.559089e-01 2.385092e-02 4.274289e-03 2.797598e-01 1.121054e-02 -4.181323e-03
4.668000e+00 1.825646e-01 3.349549e-02 1.771942e-02 2.160601e-01 1.114144e-02 -4.196998e-03
4.672000e+00 1.318136e-01 3.894249e-03 -1.173806e-02 1.357079e-01 1.109245e-02 -4.246569e-03
4.676000e+00 1.054935e-01 -2.943455e-02 -3.631206e-02 7.605899e-02 1.104846e-02 -4.259359e-03
4.680000e+00 8.028770e-02 -2.330649e-02 -2.806231e-02 5.698121e-02 1.100773e-02 -4.221808e-03
4.684000e+00 2.317447e-02 1.335459e-02 2.670017e-02 3.652905e-02 1.097624e-02 -4.178294e-03
4.688000e+00 -2.992039e-02 2.635274e-02 5.566736e-02 -3.567647e-03 1.095816e-02 -4.190843e-03
4.692000e+00 -4.490054e-02 -5.499306e-03 2.610000e-02 -5.039984e-02 1.094369e-02 -4.239405e-03
4.696000e+00 -3.036925e-02 -4.111780e-02 -1.611674e-02 -7.148705e-02 1.093311e-02 -4.255128e-03
4.700000e+00 -2.838716e-02 -3.203859e-02 -1.201294e-02 -6.042575e-02 1.092840e-02 -4.216567e-03
4.704000e+00 -5.036959e-02 1.172019e-02 1.976962e-02 -3.864940e-02 1.092253e-02 -4.172765e-03
4.708000e+00 -7.183316e-02 3.542987e-02 2.191758e-02 -3.640329e-02 1.091532e-02 -4.187430e-03
4.712000e+00 -6.490547e-02 1.192823e-02 1.009694e-03 -5.297724e-02 1.091676e-02 -4.238155e-03
4.716000e+00 -5.944104e-02 -2.506454e-02 -1.095305e-02 -8.450557e-02 1.091239e-02 -4.254070e-03
4.720000e+00 -6.761793e-02 -2.634605e-02 -2.269131e-03 -9.396398e-02 1.090590e-02 -4.216422e-03
4.724000e+00 -7.387030e-02 8.693976e-03 1.000682e-02 -6.517632e-02 1.090546e-02 -4.174496e-03
4.728000e+00 -6.809715e-02 3.311592e-02 2.794772e-03 -3.498123e-02 1.090676e-02 -4.186468e-03
4.732000e+00 -5.665543e-02 1.587974e-02 -1.508063e-02 -4.077569e-02 1.090277e-02 -4.238155e-03
4.736000e+00 -5.977896e-02 -1.830457e-02 -1.533099e-02 -7.808353e-02 1.090162e-02 -4.257387e-03
4.740000e+00 -7.520663e-02 -2.468042e-02 6.894130e-03 -9.988705e-02 1.089695e-02 -4.218298e-03
4.744000e+00 -7.722997e-02 1.261552e-03 1.405811e-02 -7.596842e-02 1.089099e-02 -4.173775e-03
4.748000e+00 -6.101316e-02 2.166629e-02 1.042041e-03 -3.934687e-02 1.089267e-02 -4.184400e-03
4.752000e+00 -4.870009e-02 8.345857e-03 -1.406097e-02 -4.035423e-02 1.088936e-02 -4.233202e-03
4.756000e+00 -5.634911e-02 -1.865175e-02 -1.267751e-02 -7.500087e-02 1.089013e-02 -4.248685e-03
4.760000e+00 -7.471101e-02 -2.070990e-02 8.330596e-03 -9.542091e-02 1.088359e-02 -4.212095e-03
4.764000e+00 -7.570801e-02 3.621548e-03 1.831598e-02 -7.208646e-02 1.088310e-02 -4.172332e-03
4.768000e+00 -5.979212e-02 1.837453e-02 1.145354e-02 -4.141759e-02 1.088993e-02 -4.182958e-03
4.772000e+00 -4.151943e-02 8.097063e-04 -1.299125e-02 -4.070973e-02 1.089104e-02 -4.232770e-03
4.776000e+00 -4.037182e-02 -2.334741e-02 -2.453581e-02 -6.371923e-02 1.088873e-02 -4.250656e-03
4.780000e+00 -5.215013e-02 -1.731251e-02 -5.977874e-03 -6.946264e-02 1.089056e-02 -4.213201e-03
4.784000e+00 -6.099432e-02 1.357250e-02 2.206347e-02 -4.742182e-02 1.089344e-02 -4.170505e-03
4.788000e+00 -5.733067e-02 2.758754e-02 1.880742e-02 -2.974314e-02 1.088931e-02 -4.182141e-03
4.792000e+00 -4.585349e-02 5.499000e-03 -1.248773e-02 -4.035449e-02 1.088575e-02 -4.232818e-03
4.796000e+00 -3.949696e-02 -2.215401e-02 -2.599761e-02 -6.165097e-02 1.088094e-02 -4.249214e-03
4.800000e+00 -4.492960e-02 -1.733802e-02 -1.088318e-02 -6.226761e-02 1.088022e-02 -4.211133e-03
4.804000e+00 -5.670691e-02 1.377034e-02 2.097993e-02 -4.293656e-02 1.088022e-02 -4.170120e-03
4.808000e+00 -6.225815e-02 2.673415e-02 2.364524e-02 -3.552400e-02 1.087070e-02 -4.182092e-03
4.812000e+00 -5.411639e-02 1.815805e-03 -7.523619e-03 -5.230059e-02 1.086767e-02 -4.233011e-03
4.816000e+00 -4.695941e-02 -2.809919e-02 -2.763910e-02 -7.505860e-02 1.085791e-02 -4.254406e-03
4.820000e+00 -5.463964e-02 -2.281040e-02 -1.801216e-02 -7.745004e-02 1.084762e-02 -4.215509e-03
4.824000e+00 -7.448701e-02 1.088027e-02 1.308343e-02 -6.360674e-02 1.083786e-02 -4.176131e-03
4.828000e+00 -8.039753e-02 2.639407e-02 2.472042e-02 -5.400347e-02 1.083724e-02 -4.185650e-03
4.832000e+00 -7.125866e-02 1.836128e-03 1.439764e-03 -6.942254e-02 1.084171e-02 -4.239213e-03
4.836000e+00 -5.909069e-02 -2.993560e-02 -2.247382e-02 -8.902629e-02 1.083454e-02 -4.257532e-03
4.840000e+00 -6.245544e-02 -2.577272e-02 -1.876406e-02 -8.822816e-02 1.082719e-02 -4.223923e-03
4.844000e+00 -7.213126e-02 9.734011e-03 1.171818e-02 -6.239725e-02 1.082449e-02 -4.182429e-03
4.848000e+00 -8.176255e-02 2.939128e-02 1.972906e-02 -5.237126e-02 1.082267e-02 -4.193199e-03
4.852000e+00 -7.540976e-02 8.261751e-03 -3.972378e-03 -6.714801e-02 1.081507e-02 -4.245992e-03
4.856000e+00 -6.969890e-02 -2.400202e-02 -2.256199e-02 -9.370092e-02 1.080853e-02 -4.262100e-03
4.860000e+00 -7.579416e-02 -2.419894e-02 -5.948851e-03 -9.999310e-02 1.080036e-02 -4.226231e-03
4.864000e+00 -8.106678e-02 6.340196e-03 1.593883e-02 -7.472658e-02 1.079882e-02 -4.186804e-03
4.868000e+00 -8.458273e-02 2.602605e-02 1.977855e-02 -5.855668e-02 1.079964e-02 -4.194546e-03
4.872000e+00 -6.725094e-02 7.925643e-03 -1.018042e-03 -5.932530e-02 1.080550e-02 -4.241953e-03
4.876000e+00 -5.502492e-02 -2.228743e-02 -1.333506e-02 -7.731235e-02 1.080978e-02 -4.261042e-03
4.880000e+00 -5.901600e-02 -2.370063e-02 -1.380935e-03 -8.271663e-02 1.080454e-02 -4.225654e-03
4.884000e+00 -6.039427e-02 4.930269e-03 1.506085e-02 -5.546401e-02 1.080868e-02 -4.184208e-03
4.888000e+00 -5.041372e-02 2.475427e-02 1.660977e-02 -2.565945e-02 1.081560e-02 -4.192863e-03
4.892000e+00 -3.787541e-02 9.125616e-03 -1.023647e-02 -2.874979e-02 1.081358e-02 -4.247050e-03
4.896000e+00 -3.201979e-02 -1.862068e-02 -2.114427e-02 -5.064047e-02 1.081935e-02 -4.266811e-03
4.900000e+00 -3.669598e-02 -1.993109e-02 1.113105e-04 -5.662706e-02 1.082252e-02 -4.226375e-03
4.904000e+00 -2.839465e-02 6.377022e-03 1.927262e-02 -2.201762e-02 1.083324e-02 -4.182669e-03
4.908000e+00 -1.161025e-02 2.395983e-02 1.695472e-02 1.234958e-02 1.084209e-02 -4.190458e-03
4.912000e+00 5.591411e-03 8.106329e-03 -8.363952e-03 1.369774e-02 1.084844e-02 -4.241040e-03
4.916000e+00 1.573168e-02 -1.824725e-02 -1.642195e-02 -2.515574e-03 1.085916e-02 -4.258638e-03
4.920000e+00 1.423587e-02 -1.808606e-02 5.404780e-04 -3.850193e-03 1.086757e-02 -4.219067e-03
4.924000e+00 1.846233e-02 8.676500e-03 1.746186e-02 2.713883e-02 1.087469e-02 -4.181660e-03
4.928000e+00 3.516422e-02 2.503400e-02 1.310554e-02 6.019822e-02 1.088863e-02 -4.192141e-03
4.932000e+00 5.348156e-02 8.422770e-03 -8.110966e-03 6.190433e-02 1.090426e-02 -4.239886e-03
4.936000e+00 6.873398e-02 -1.722459e-02 -2.158429e-02 5.150939e-02 1.091373e-02 -4.260032e-03
4.940000e+00 6.759810e-02 -1.462675e-02 -1.202894e-02 5.297135e-02 1.092094e-02 -4.226664e-03
4.944000e+00 6.517919e-02 1.382391e-02 1.357652e-02 7.900310e-02 1.092825e-02 -4.184593e-03
4.948000e+00 7.553051e-02 2.831986e-02 1.342010e-02 1.038504e-01 1.093671e-02 -4.196324e-03
4.952000e+00 9.312523e-02 8.509429e-03 -9.733941e-03 1.016347e-01 1.094715e-02 -4.245127e-03
4.956000e+00 1.005635e-01 -1.921659e-02 -2.375798e-02 8.134687e-02 1.094979e-02 -4.264552e-03
4.960000e+00 9.696796e-02 -1.741790e-02 -1.124442e-02 7.955006e-02 1.095210e-02 -4.230366e-03
4.964000e+00 9.028132e-02 1.116390e-02 1.523140e-02 1.014452e-01 1.095840e-02 -4.189353e-03
4.968000e+00 9.203959e-02 2.631896e-02 1.778256e-02 1.183586e-01 1.096205e-02 -4.201229e-03
4.972000e+00 1.046022e-01 6.581577e-03 -9.168518e-03 1.111838e-01 1.096758e-02 -4.253541e-03
4.976000e+00 1.119712e-01 -2.108704e-02 -2.319384e-02 9.088412e-02 1.097518e-02 -4.272485e-03
4.980000e+00 1.075320e-01 -1.921879e-02 -9.092667e-03 8.831316e-02 1.097633e-02 -4.239405e-03
4.984000e+00 9.955957e-02 9.933896e-03 1.169486e-02 1.094935e-01 1.097696e-02 -4.200796e-03
4.988000e+00 9.543336e-02 2.697159e-02 1.695605e-02 1.224049e-01 1.097936e-02 -4.207864e-03
4.992000e+00 1.034371e-01 7.997347e-03 -4.340760e-03 1.114344e-01 1.097936e-02 -4.257435e-03
4.996000e+00 1.083249e-01 -2.123862e-02 -2.216826e-02 8.708628e-02 1.098114e-02 -4.281235e-03
5.000000e+00 9.743912e-02 -2.115337e-02 -6.509576e-03 7.628575e-02 1.097869e-02 -4.245512e-03
5.004000e+00 8.505230e-02 7.383361e-03 1.707199e-02 9.243566e-02 1.097470e-02 -4.201661e-03
5.008000e+00 7.977927e-02 2.597420e-02 1.811869e-02 1.057535e-01 1.097244e-02 -4.213153e-03
5.012000e+00 7.997065e-02 9.994002e-03 -2.047120e-03 8.996465e-02 1.096965e-02 -4.259840e-03
5.016000e+00 7.749547e-02 -1.835779e-02 -1.719293e-02 5.913767e-02 1.096705e-02 -4.280226e-03
5.020000e+00 6.921622e-02 -1.985507e-02 -5.387664e-03 4.936115e-02 1.096167e-02 -4.247771e-03
5.024000e+00 5.608799e-02 8.067128e-03 1.693035e-02 6.415511e-02 1.095955e-02 -4.205989e-03
5.028000e+00 4.905436e-02 2.721849e-02 2.054372e-02 7.627285e-02 1.095734e-02 -4.213153e-03
5.032000e+00 5.650519e-02 1.046034e-02 -4.441983e-03 6.696553e-02 1.096095e-02 -4.265465e-03
5.036000e+00 6.018028e-02 -1.997602e-02 -1.751078e-02 4.020426e-02 1.095946e-02 -4.283976e-03
5.040000e+00 5.561626e-02 -2.447082e-02 -6.889784e-03 3.114544e-02 1.095782e-02 -4.247915e-03
5.044000e+00 4.679372e-02 3.454372e-03 1.584104e-02 5.024809e-02 1.095374e-02 -4.208778e-03
5.048000e+00 3.742062e-02 2.736530e-02 1.548679e-02 6.478592e-02 1.095350e-02 -4.218490e-03
5.052000e+00 3.333444e-02 1.602324e-02 -5.711413e-03 4.935768e-02 1.095220e-02 -4.268206e-03
5.056000e+00 3.825956e-02 -1.523653e-02 -2.081363e-02 2.302303e-02 1.094859e-02 -4.288785e-03
5.060000e+00 3.768846e-02 -2.401641e-02 -8.056238e-03 1.367205e-02 1.094830e-02 -4.254647e-03
5.064000e+00 3.131853e-02 1.297900e-03 1.650237e-02 3.261643e-02 1.094782e-02 -4.214115e-03
5.068000e+00 2.288172e-02 2.510918e-02 1.622456e-02 4.799090e-02 1.094494e-02 -4.221375e-03
5.072000e+00 2.339516e-02 1.435145e-02 -8.375022e-03 3.774661e-02 1.094489e-02 -4.272341e-03
5.076000e+00 2.777592e-02 -1.573060e-02 -2.041548e-02 1.204532e-02 1.094446e-02 -4.295131e-03
5.080000e+00 2.408123e-02 -2.341889e-02 -6.333773e-03 6.623396e-04 1.094220e-02 -4.260321e-03
5.084000e+00 2.087692e-02 1.833158e-03 1.567519e-02 2.271008e-02 1.094777e-02 -4.219403e-03
5.088000e+00 2.011287e-02 2.433264e-02 1.913575e-02 4.444551e-02 1.095018e-02 -4.225846e-03
5.092000e+00 2.539837e-02 1.226789e-02 -7.790151e-03 3.766626e-02 1.095143e-02 -4.276956e-03
5.096000e+00 3.054585e-02 -1.667657e-02 -2.112815e-02 1.386929e-02 1.095393e-02 -4.299362e-03
5.100000e+00 2.746035e-02 -2.226999e-02 -7.974174e-03 5.190367e-03 1.095273e-02 -4.268687e-03
5.104000e+00 2.081729e-02 3.671030e-03 1.517102e-02 2.448832e-02 1.095292e-02 -4.222336e-03
5.108000e+00 1.747857e-02 2.523070e-02 1.988288e-02 4.270927e-02 1.095345e-02 -4.224933e-03
5.112000e+00 2.385269e-02 1.213396e-02 -3.623752e-03 3.598665e-02 1.095095e-02 -4.277004e-03
5.116000e+00 2.447730e-02 -1.755782e-02 -2.067915e-02 6.919477e-03 1.095051e-02 -4.302632e-03
5.120000e+00 1.846415e-02 -2.303896e-02 -7.142803e-03 -4.574800e-03 1.095200e-02 -4.272196e-03
5.124000e+00 1.159275e-02 3.308457e-03 1.124142e-02 1.490121e-02 1.094941e-02 -4.236472e-03
5.128000e+00 7.133898e-03 2.594172e-02 9.035746e-03 3.307562e-02 1.095076e-02 -4.247339e-03
5.132000e+00 1.419501e-02 1.388632e-02 -7.681160e-03 2.808133e-02 1.095979e-02 -4.292294e-03
5.136000e+00 2.366290e-02 -1.673344e-02 -2.181341e-02 6.929459e-03 1.095710e-02 -4.316094e-03
5.140000e+00 2.627526e-02 -2.376379e-02 -1.389367e-02 2.511473e-03 1.095729e-02 -4.286044e-03
5.144000e+00 1.520498e-02 2.453046e-03 1.350341e-02 1.765803e-02 1.095614e-02 -4.247531e-03
5.148000e+00 8.213422e-03 2.500075e-02 1.762806e-02 3.321417e-02 1.095475e-02 -4.254406e-03
5.152000e+00 1.060679e-02 1.272564e-02 -5.296136e-03 2.333243e-02 1.095758e-02 -4.303786e-03
5.156000e+00 1.962451e-02 -1.791787e-02 -1.883266e-02 1.706648e-03 1.095758e-02 -4.326432e-03
5.160000e+00 2.260663e-02 -2.543853e-02 -6.735134e-03 -2.831909e-03 1.096176e-02 -4.294170e-03
5.164000e+00 1.626952e-02 6.178894e-04 1.674940e-02 1.688741e-02 1.096143e-02 -4.256041e-03
5.168000e+00 1.090444e-02 2.442369e-02 1.583123e-02 3.532813e-02 1.096359e-02 -4.266811e-03
5.172000e+00 1.421192e-02 1.382053e-02 -5.145360e-03 2.803245e-02 1.096850e-02 -4.316431e-03
5.176000e+00 2.257433e-02 -1.619966e-02 -1.940818e-02 6.374676e-03 1.097066e-02 -4.337298e-03
5.180000e+00 2.512968e-02 -2.372419e-02 -8.283831e-03 1.405486e-03 1.097047e-02 -4.307392e-03
5.184000e+00 2.148218e-02 1.866999e-03 1.520158e-02 2.334918e-02 1.097340e-02 -4.265609e-03
5.188000e+00 1.488990e-02 2.513155e-02 1.950458e-02 4.002145e-02 1.097571e-02 -4.273302e-03
5.192000e+00 2.173643e-02 1.393122e-02 -3.499381e-03 3.566765e-02 1.097970e-02 -4.323883e-03
5.196000e+00 2.719536e-02 -1.589064e-02 -1.912290e-02 1.130472e-02 1.098254e-02 -4.347299e-03
5.200000e+00 2.917004e-02 -2.333152e-02 -5.875958e-03 5.838515e-03 1.098484e-02 -4.315469e-03
5.204000e+00 2.408768e-02 1.663553e-03 1.654619e-02 2.575123e-02 1.098359e-02 -4.271186e-03
5.208000e+00 1.923877e-02 2.445231e-02 1.743631e-02 4.369108e-02 1.098283e-02 -4.278543e-03
5.212000e+00 2.271922e-02 1.365225e-02 -4.136850e-03 3.637146e-02 1.098499e-02 -4.330134e-03
5.216000e+00 2.125649e-02 -1.558664e-02 -2.001903e-02 5.669849e-03 1.098047e-02 -4.356963e-03
5.220000e+00 1.503164e-02 -2.268827e-02 -9.747783e-03 -7.656635e-03 1.097609e-02 -4.324989e-03
5.224000e+00 9.815493e-03 2.233460e-03 1.466120e-02 1.204895e-02 1.097922e-02 -4.283832e-03
5.228000e+00 8.467331e-03 2.437283e-02 1.763083e-02 3.284016e-02 1.098114e-02 -4.293400e-03
5.232000e+00 1.381851e-02 1.311810e-02 -4.068297e-03 2.693660e-02 1.098768e-02 -4.338163e-03
5.236000e+00 2.310009e-02 -1.583848e-02 -1.451343e-02 7.261604e-03 1.099259e-02 -4.356194e-03
5.240000e+00 2.368606e-02 -2.287825e-02 -5.816880e-03 8.078139e-04 1.098619e-02 -4.327345e-03
5.244000e+00 1.299074e-02 1.966809e-03 1.352656e-02 1.495755e-02 1.098283e-02 -4.288785e-03
5.248000e+00 3.450263e-03 2.398094e-02 1.834218e-02 2.743120e-02 1.098311e-02 -4.296141e-03
5.252000e+00 1.045075e-02 1.257489e-02 -2.968744e-03 2.302563e-02 1.099095e-02 -4.344895e-03
5.256000e+00 1.807375e-02 -1.575167e-02 -1.763636e-02 2.322075e-03 1.099384e-02 -4.366532e-03
5.260000e+00 1.654464e-02 -2.184422e-02 -8.679987e-03 -5.299585e-03 1.099133e-02 -4.335086e-03
5.264000e+00 1.097175e-02 2.897421e-03 1.255302e-02 1.386917e-02 1.098975e-02 -4.297199e-03
5.268000e+00 8.904671e-03 2.425617e-02 1.550789e-02 3.316084e-02 1.099610e-02 -4.304555e-03
5.272000e+00 1.089785e-02 1.280010e-02 -3.815360e-03 2.369795e-02 1.099619e-02 -4.351627e-03
5.276000e+00 1.781586e-02 -1.572238e-02 -2.083560e-02 2.093474e-03 1.099557e-02 -4.373022e-03
5.280000e+00 1.534462e-02 -2.185687e-02 -6.331020e-03 -6.512251e-03 1.099682e-02 -4.340808e-03
5.284000e+00 1.043196e-02 2.207292e-03 1.849488e-02 1.263925e-02 1.099739e-02 -4.299555e-03
5.288000e+00 1.020691e-02 2.293251e-02 2.010155e-02 3.313943e-02 1.100412e-02 -4.303305e-03
5.292000e+00 1.586402e-02 1.152502e-02 -1.793576e-03 2.738904e-02 1.100528e-02 -4.351723e-03
5.296000e+00 2.011328e-02 -1.644296e-02 -2.030042e-02 3.670320e-03 1.100254e-02 -4.376292e-03
5.300000e+00 1.242248e-02 -2.216262e-02 -1.027956e-02 -9.740142e-03 1.099917e-02 -4.348549e-03
5.304000e+00 7.879825e-03 2.488758e-03 1.531896e-02 1.036858e-02 1.100523e-02 -4.304074e-03
5.308000e+00 5.364650e-03 2.379175e-02 2.118122e-02 2.915640e-02 1.100513e-02 -4.305228e-03
5.312000e+00 1.408121e-02 1.248178e-02 -5.477243e-03 2.656299e-02 1.100821e-02 -4.356050e-03
5.316000e+00 1.675323e-02 -1.529371e-02 -1.888658e-02 1.459521e-03 1.101076e-02 -4.382494e-03
5.320000e+00 1.372901e-02 -2.190784e-02 -7.030095e-03 -8.178833e-03 1.101167e-02 -4.349366e-03
5.324000e+00 7.961843e-03 2.125617e-03 1.190822e-02 1.008746e-02 1.100908e-02 -4.308402e-03
5.328000e+00 7.674378e-03 2.409807e-02 1.463537e-02 3.177245e-02 1.101004e-02 -4.314604e-03
5.332000e+00 1.091242e-02 1.360366e-02 -3.103296e-03 2.451608e-02 1.101768e-02 -4.361387e-03
5.336000e+00 1.379935e-02 -1.499838e-02 -1.565531e-02 -1.199026e-03 1.101600e-02 -4.381965e-03
5.340000e+00 1.653576e-02 -2.255340e-02 -9.704230e-03 -6.017634e-03 1.101711e-02 -4.352107e-03
5.344000e+00 1.170020e-02 1.523707e-03 1.322202e-02 1.322390e-02 1.101725e-02 -4.314171e-03
5.348000e+00 4.850461e-03 2.335683e-02 1.757759e-02 2.820729e-02 1.101720e-02 -4.317874e-03
5.352000e+00 5.598934e-03 1.288702e-02 -5.259223e-03 1.848595e-02 1.101735e-02 -4.366484e-03
5.356000e+00 5.724850e-03 -1.510433e-02 -2.333186e-02 -9.379483e-03 1.100634e-02 -4.390380e-03
5.360000e+00 -7.409596e-03 -2.201222e-02 -1.548543e-02 -2.942182e-02 1.098980e-02 -4.362252e-03
5.364000e+00 -1.687274e-02 1.757502e-03 1.255536e-02 -1.511524e-02 1.099249e-02 -4.320951e-03
5.368000e+00 -2.628499e-02 2.285704e-02 2.380813e-02 -3.427949e-03 1.099162e-02 -4.325230e-03
5.372000e+00 -2.017405e-02 1.162474e-02 -3.255173e-03 -8.549308e-03 1.099364e-02 -4.374369e-03
5.376000e+00 -1.540330e-02 -1.605232e-02 -2.135882e-02 -3.145562e-02 1.099422e-02 -4.401198e-03
5.380000e+00 -1.641446e-02 -2.283264e-02 -1.069211e-02 -3.924710e-02 1.099148e-02 -4.373744e-03
5.384000e+00 -3.277514e-02 7.290530e-04 8.651262e-03 -3.204608e-02 1.097177e-02 -4.330903e-03
5.388000e+00 -5.852053e-02 2.254894e-02 4.610161e-03 -3.597160e-02 1.093571e-02 -4.337683e-03
5.392000e+00 -6.706900e-02 1.318102e-02 -9.024330e-03 -5.388798e-02 1.092998e-02 -4.383552e-03
5.396000e+00 -7.675318e-02 -1.462393e-02 -7.092964e-03 -9.137711e-02 1.092599e-02 -4.407448e-03
5.400000e+00 -7.710638e-02 -2.342017e-02 1.981106e-03 -1.005266e-01 1.093195e-02 -4.379513e-03
5.404000e+00 -7.447426e-02 -1.087979e-03 2.128297e-02 -7.556224e-02 1.093936e-02 -4.340183e-03
5.408000e+00 -5.456480e-02 2.010288e-02 2.297696e-02 -3.446192e-02 1.096455e-02 -4.340327e-03
5.412000e+00 -3.385976e-02 1.074634e-02 1.871663e-03 -2.311343e-02 1.097802e-02 -4.388601e-03
5.416000e+00 -1.668617e-02 -1.561106e-02 -2.506885e-02 -3.229723e-02 1.097941e-02 -4.414180e-03
5.420000e+00 -2.146569e-02 -2.068920e-02 -1.750143e-02 -4.215489e-02 1.097427e-02 -4.388553e-03
5.424000e+00 -2.212397e-02 3.164826e-03 1.077882e-02 -1.895914e-02 1.098090e-02 -4.349655e-03
5.428000e+00 -2.150481e-02 2.364498e-02 1.936314e-02 2.140165e-03 1.099629e-02 -4.357252e-03
5.432000e+00 -3.567116e-03 1.281918e-02 5.113566e-04 9.252066e-03 1.101413e-02 -4.400236e-03
5.436000e+00 1.745840e-02 -1.459994e-02 -1.818891e-02 2.858456e-03 1.102759e-02 -4.420382e-03
5.440000e+00 3.127252e-02 -2.114203e-02 -8.495898e-03 1.013049e-02 1.103384e-02 -4.389178e-03
5.444000e+00 3.592960e-02 1.752478e-03 1.359833e-02 3.768208e-02 1.104576e-02 -4.349415e-03
5.448000e+00 3.763975e-02 2.249481e-02 1.928608e-02 6.013456e-02 1.105278e-02 -4.357107e-03
5.452000e+00 4.554176e-02 1.222602e-02 -6.141496e-03 5.776778e-02 1.106115e-02 -4.405525e-03
5.456000e+00 5.024104e-02 -1.433235e-02 -2.075490e-02 3.590869e-02 1.106403e-02 -4.431393e-03
5.460000e+00 4.788993e-02 -2.098922e-02 -1.301905e-02 2.690070e-02 1.105975e-02 -4.403458e-03
5.464000e+00 4.130886e-02 2.046339e-03 9.061700e-03 4.335520e-02 1.106120e-02 -4.361002e-03
5.468000e+00 4.078413e-02 2.314154e-02 1.649967e-02 6.392567e-02 1.106288e-02 -4.363887e-03
5.472000e+00 4.250485e-02 1.316032e-02 -5.101372e-03 5.566518e-02 1.106240e-02 -4.413651e-03
5.476000e+00 4.103759e-02 -1.386487e-02 -1.704767e-02 2.717272e-02 1.106192e-02 -4.437451e-03
5.480000e+00 3.391927e-02 -2.155619e-02 -6.030637e-03 1.236308e-02 1.105990e-02 -4.409372e-03
5.484000e+00 2.883265e-02 5.392369e-04 1.320646e-02 2.937189e-02 1.105750e-02 -4.371099e-03
5.488000e+00 2.484686e-02 2.200739e-02 1.613294e-02 4.685425e-02 1.105750e-02 -4.370859e-03
5.492000e+00 2.849448e-02 1.332899e-02 -1.688426e-03 4.182348e-02 1.106225e-02 -4.417642e-03
5.496000e+00 3.078110e-02 -1.323134e-02 -1.541825e-02 1.754976e-02 1.105884e-02 -4.443221e-03
5.500000e+00 1.730434e-02 -2.107183e-02 -1.181540e-02 -3.767486e-03 1.104673e-02 -4.419853e-03
5.504000e+00 -1.337457e-03 8.868971e-04 8.595493e-03 -4.505596e-04 1.102720e-02 -4.379129e-03
5.508000e+00 -3.029380e-02 2.185602e-02 1.013877e-02 -8.437781e-03 1.099076e-02 -4.379658e-03
5.512000e+00 -4.426653e-02 1.332382e-02 -5.072083e-03 -3.094271e-02 1.097816e-02 -4.419758e-03
5.516000e+00 -3.539631e-02 -1.273264e-02 -2.185105e-03 -4.812895e-02 1.100701e-02 -4.446394e-03
5.520000e+00 -4.695421e-02 -2.153285e-02 7.494798e-03 -6.848706e-02 1.098585e-02 -4.424709e-03
5.524000e+00 -1.152349e-01 -1.679278e-03 -1.476790e-02 -1.169142e-01 1.086839e-02 -4.389274e-03
5.528000e+00 -2.143303e-01 2.060573e-02 -3.368034e-02 -1.937245e-01 1.072852e-02 -4.392880e-03
5.532000e+00 -2.969930e-01 1.424965e-02 -2.180717e-02 -2.827434e-01 1.065131e-02 -4.439567e-03
5.536000e+00 -2.544326e-01 -1.162370e-02 3.500940e-02 -2.660563e-01 1.080887e-02 -4.459376e-03
5.540000e+00 -9.435699e-02 -2.238167e-02 1.199112e-01 -1.167387e-01 1.108562e-02 -4.428604e-03
5.544000e+00 7.933117e-02 -1.091098e-02 9.039597e-02 6.842019e-02 1.122563e-02 -4.384322e-03
5.548000e+00 1.932551e-01 7.632199e-03 -2.922972e-02 2.008873e-01 1.124535e-02 -4.387206e-03
5.552000e+00 2.632275e-01 1.187068e-02 -8.018916e-02 2.750982e-01 1.126569e-02 -4.430912e-03
5.556000e+00 3.021004e-01 3.580268e-03 -5.417374e-02 3.056806e-01 1.132997e-02 -4.452500e-03
5.560000e+00 2.907043e-01 6.779477e-03 -1.645054e-02 2.974837e-01 1.134896e-02 -4.427498e-03
5.564000e+00 2.576945e-01 2.405242e-02 5.507318e-03 2.817469e-01 1.132473e-02 -4.389226e-03
5.568000e+00 2.038957e-01 2.746795e-02 1.714256e-02 2.313637e-01 1.125862e-02 -4.392832e-03
5.572000e+00 1.574134e-01 1.147875e-03 -1.897712e-02 1.585613e-01 1.120443e-02 -4.442596e-03
5.576000e+00 1.207779e-01 -2.255133e-02 -4.239899e-02 9.822658e-02 1.116140e-02 -4.464857e-03
5.580000e+00 8.825016e-02 -1.355733e-02 -3.611651e-02 7.469283e-02 1.112505e-02 -4.435816e-03
5.584000e+00 3.402919e-02 1.659258e-02 1.725944e-02 5.062178e-02 1.109481e-02 -4.393746e-03
5.588000e+00 -1.270671e-02 2.160379e-02 5.409610e-02 8.897080e-03 1.106774e-02 -4.394563e-03
5.592000e+00 -3.340200e-02 -1.111291e-02 2.666904e-02 -4.451491e-02 1.104562e-02 -4.439903e-03
5.596000e+00 -3.014047e-02 -4.060670e-02 -1.522909e-02 -7.074717e-02 1.103124e-02 -4.467502e-03
5.600000e+00 -3.987351e-02 -2.849484e-02 -1.779697e-02 -6.836834e-02 1.102254e-02 -4.437980e-03
5.604000e+00 -6.246650e-02 1.096155e-02 1.495974e-02 -5.150495e-02 1.101975e-02 -4.392399e-03
5.608000e+00 -6.927787e-02 2.925155e-02 3.195582e-02 -4.002633e-02 1.102259e-02 -4.389418e-03
5.612000e+00 -5.954078e-02 6.928244e-03 1.464692e-02 -5.261253e-02 1.102153e-02 -4.433075e-03
5.616000e+00 -5.614270e-02 -2.378695e-02 -6.074656e-03 -7.992966e-02 1.101682e-02 -4.456107e-03
5.620000e+00 -7.290870e-02 -2.266563e-02 -2.816541e-03 -9.557433e-02 1.101105e-02 -4.431489e-03
5.624000e+00 -8.146113e-02 7.454630e-03 8.562180e-03 -7.400650e-02 1.100802e-02 -4.390091e-03
5.628000e+00 -7.633564e-02 2.805747e-02 3.891345e-03 -4.827817e-02 1.100648e-02 -4.388216e-03
5.632000e+00 -5.982100e-02 1.502212e-02 -9.964378e-03 -4.479888e-02 1.100590e-02 -4.435191e-03
5.636000e+00 -6.892786e-02 -1.235461e-02 -1.323910e-02 -8.128247e-02 1.099970e-02 -4.462357e-03
5.640000e+00 -9.159829e-02 -1.908811e-02 2.384284e-03 -1.106864e-01 1.099850e-02 -4.434374e-03
5.644000e+00 -8.853330e-02 -5.879826e-04 1.346314e-02 -8.912128e-02 1.099840e-02 -4.389418e-03
5.648000e+00 -6.792215e-02 1.527705e-02 6.717891e-04 -5.264510e-02 1.099403e-02 -4.388408e-03
5.652000e+00 -4.830773e-02 7.569355e-03 -1.405117e-02 -4.073837e-02 1.100134e-02 -4.432306e-03
5.656000e+00 -6.007806e-02 -1.119304e-02 -1.101961e-02 -7.127110e-02 1.100244e-02 -4.460194e-03
5.660000e+00 -8.145615e-02 -1.426448e-02 5.334497e-04 -9.572063e-02 1.099999e-02 -4.435912e-03
5.664000e+00 -8.213935e-02 1.791837e-03 1.228059e-02 -8.034752e-02 1.099816e-02 -4.392303e-03
5.668000e+00 -6.248113e-02 1.107540e-02 6.104962e-03 -5.140573e-02 1.099100e-02 -4.393938e-03
5.672000e+00 -4.450958e-02 -1.757752e-03 -1.384468e-02 -4.626734e-02 1.099278e-02 -4.437692e-03
5.676000e+00 -5.376863e-02 -1.811705e-02 -1.876538e-02 -7.188568e-02 1.099417e-02 -4.462982e-03
5.680000e+00 -7.131520e-02 -1.302120e-02 -5.444457e-03 -8.433639e-02 1.099234e-02 -4.437163e-03
5.684000e+00 -8.077341e-02 9.570184e-03 1.561526e-02 -7.120322e-02 1.098922e-02 -4.394322e-03
5.688000e+00 -7.207320e-02 1.907377e-02 2.057592e-02 -5.299943e-02 1.098758e-02 -4.393938e-03
5.692000e+00 -5.397321e-02 1.954367e-03 -9.305171e-04 -5.201885e-02 1.099211e-02 -4.436682e-03
5.696000e+00 -5.282171e-02 -1.725063e-02 -2.272784e-02 -7.007234e-02 1.098754e-02 -4.462982e-03
5.700000e+00 -6.710051e-02 -1.067206e-02 -1.961230e-02 -7.777257e-02 1.097778e-02 -4.440769e-03
5.704000e+00 -7.996588e-02 1.367040e-02 1.387399e-02 -6.629547e-02 1.097542e-02 -4.394419e-03
5.708000e+00 -7.975716e-02 2.020102e-02 2.958913e-02 -5.955614e-02 1.097119e-02 -4.392976e-03
5.712000e+00 -6.346937e-02 -2.163843e-03 5.184418e-03 -6.563321e-02 1.097153e-02 -4.436153e-03
5.716000e+00 -6.046239e-02 -2.401029e-02 -2.089617e-02 -8.447267e-02 1.096480e-02 -4.459809e-03
5.720000e+00 -7.029702e-02 -1.680409e-02 -1.945485e-02 -8.710111e-02 1.095638e-02 -4.436297e-03
5.724000e+00 -8.631434e-02 1.015464e-02 8.951380e-03 -7.615970e-02 1.094749e-02 -4.399227e-03
5.728000e+00 -9.143630e-02 2.001832e-02 2.395972e-02 -7.141799e-02 1.094450e-02 -4.396582e-03
5.732000e+00 -8.344405e-02 -1.211603e-03 4.055153e-03 -8.465565e-02 1.093984e-02 -4.440625e-03
5.736000e+00 -7.621459e-02 -2.541204e-02 -2.114235e-02 -1.016266e-01 1.093152e-02 -4.463896e-03
5.740000e+00 -8.863054e-02 -2.021524e-02 -2.042120e-02 -1.088458e-01 1.092373e-02 -4.444327e-03
5.744000e+00 -1.036911e-01 8.171999e-03 8.019757e-03 -9.551907e-02 1.091368e-02 -4.403266e-03
5.748000e+00 -1.044199e-01 2.244222e-02 1.943954e-02 -8.197770e-02 1.091758e-02 -4.401005e-03
5.752000e+00 -9.118161e-02 5.521481e-03 5.478556e-03 -8.566012e-02 1.091825e-02 -4.445096e-03
5.756000e+00 -8.915467e-02 -1.944010e-02 -1.880381e-02 -1.085948e-01 1.090715e-02 -4.472454e-03
5.760000e+00 -9.959409e-02 -1.887506e-02 -1.583764e-02 -1.184692e-01 1.090109e-02 -4.448029e-03
5.764000e+00 -1.042132e-01 5.173690e-03 1.114324e-02 -9.903955e-02 1.089916e-02 -4.403314e-03
5.768000e+00 -9.197400e-02 1.961813e-02 2.007344e-02 -7.235587e-02 1.090517e-02 -4.401775e-03
5.772000e+00 -7.892772e-02 6.349671e-03 3.240012e-03 -7.257805e-02 1.090710e-02 -4.444807e-03
5.776000e+00 -8.155209e-02 -1.599738e-02 -1.344994e-02 -9.754947e-02 1.090090e-02 -4.471588e-03
5.780000e+00 -8.803956e-02 -1.774911e-02 -7.532489e-03 -1.057887e-01 1.089989e-02 -4.446346e-03
5.784000e+00 -8.493743e-02 2.671290e-03 1.395539e-02 -8.226614e-02 1.090652e-02 -4.401054e-03
5.788000e+00 -6.794678e-02 1.707421e-02 1.656262e-02 -5.087256e-02 1.090835e-02 -4.402352e-03
5.792000e+00 -5.117980e-02 6.952802e-03 -5.906466e-03 -4.422700e-02 1.091493e-02 -4.447693e-03
5.796000e+00 -5.239546e-02 -1.239101e-02 -1.460156e-02 -6.478648e-02 1.092248e-02 -4.475628e-03
5.800000e+00 -5.524622e-02 -1.489777e-02 -7.686591e-03 -7.014400e-02 1.092575e-02 -4.455241e-03
5.804000e+00 -5.019004e-02 3.620940e-03 6.784202e-03 -4.656910e-02 1.093061e-02 -4.411199e-03
5.808000e+00 -3.014197e-02 1.734097e-02 1.147547e-02 -1.280100e-02 1.093681e-02 -4.406583e-03
5.812000e+00 -7.961054e-03 6.983646e-03 -5.021223e-03 -9.774085e-04 1.094450e-02 -4.450337e-03
5.816000e+00 -9.895721e-03 -1.195763e-02 -1.573926e-02 -2.185335e-02 1.094763e-02 -4.476157e-03
5.820000e+00 -1.866379e-02 -1.327641e-02 -2.467245e-03 -3.194020e-02 1.095268e-02 -4.446442e-03
5.824000e+00 -6.441955e-03 3.911746e-03 2.198970e-02 -2.530209e-03 1.096773e-02 -4.399275e-03
5.828000e+00 2.111288e-02 1.435601e-02 2.675009e-02 3.546890e-02 1.098633e-02 -4.394178e-03
5.832000e+00 4.153920e-02 2.834516e-03 2.813046e-03 4.437371e-02 1.099249e-02 -4.437451e-03
5.836000e+00 4.461149e-02 -1.361544e-02 -2.127661e-02 3.099605e-02 1.099706e-02 -4.465579e-03
5.840000e+00 3.248464e-02 -9.770935e-03 -1.285549e-02 2.271370e-02 1.100177e-02 -4.445192e-03
5.844000e+00 3.099974e-02 1.069317e-02 1.062962e-02 4.169291e-02 1.100629e-02 -4.403987e-03
5.848000e+00 4.241294e-02 2.075840e-02 1.562852e-02 6.317134e-02 1.101389e-02 -4.398169e-03
5.852000e+00 6.165008e-02 6.702479e-03 -2.443841e-03 6.835256e-02 1.101999e-02 -4.438845e-03
5.856000e+00 6.708701e-02 -1.248910e-02 -2.232267e-02 5.459791e-02 1.102384e-02 -4.467406e-03
5.860000e+00 5.572155e-02 -1.010670e-02 -1.469273e-02 4.561485e-02 1.102865e-02 -4.446106e-03
5.864000e+00 5.428274e-02 1.030399e-02 1.181600e-02 6.458673e-02 1.103658e-02 -4.402881e-03
5.868000e+00 6.391848e-02 1.984912e-02 1.912712e-02 8.376760e-02 1.103716e-02 -4.396871e-03
5.872000e+00 7.876971e-02 4.248122e-03 -1.212631e-03 8.301783e-02 1.103971e-02 -4.434903e-03
5.876000e+00 8.176351e-02 -1.652948e-02 -1.768376e-02 6.523403e-02 1.104365e-02 -4.464425e-03
5.880000e+00 7.216961e-02 -1.538543e-02 -9.577344e-03 5.678419e-02 1.104682e-02 -4.439038e-03
5.884000e+00 6.152852e-02 6.079892e-03 1.156891e-02 6.760842e-02 1.104437e-02 -4.397063e-03
5.888000e+00 6.650241e-02 1.893625e-02 1.799988e-02 8.543865e-02 1.104278e-02 -4.394515e-03
5.892000e+00 7.324288e-02 5.765826e-03 -7.264326e-04 7.900871e-02 1.104778e-02 -4.438942e-03
5.896000e+00 7.085931e-02 -1.558346e-02 -1.687505e-02 5.527585e-02 1.104692e-02 -4.464280e-03
5.900000e+00 5.990830e-02 -1.657487e-02 -1.604503e-02 4.333343e-02 1.104076e-02 -4.440672e-03
5.904000e+00 5.378262e-02 5.057998e-03 8.960909e-03 5.884062e-02 1.103951e-02 -4.394563e-03
5.908000e+00 5.120993e-02 1.984289e-02 2.393524e-02 7.105281e-02 1.103648e-02 -4.386052e-03
5.912000e+00 5.402883e-02 8.080076e-03 7.686835e-03 6.210891e-02 1.103393e-02 -4.423171e-03
5.916000e+00 4.854286e-02 -1.363318e-02 -1.478642e-02 3.490968e-02 1.102970e-02 -4.455914e-03
5.920000e+00 3.739140e-02 -1.585937e-02 -1.008238e-02 2.153203e-02 1.102850e-02 -4.434278e-03
5.924000e+00 3.092551e-02 4.399824e-03 1.301697e-02 3.532534e-02 1.103437e-02 -4.388553e-03
5.928000e+00 3.302053e-02 1.998227e-02 1.865418e-02 5.300281e-02 1.102730e-02 -4.384370e-03
5.932000e+00 4.083962e-02 1.006064e-02 -4.822412e-03 5.090027e-02 1.102701e-02 -4.424277e-03
5.936000e+00 3.398817e-02 -1.161211e-02 -1.738949e-02 2.237606e-02 1.102206e-02 -4.451154e-03
5.940000e+00 2.483247e-02 -1.760273e-02 -1.195063e-02 7.229733e-03 1.101749e-02 -4.430720e-03
5.944000e+00 1.595651e-02 1.044856e-03 9.061177e-03 1.700136e-02 1.101600e-02 -4.389514e-03
5.948000e+00 2.009849e-02 1.977338e-02 1.902101e-02 3.987186e-02 1.102658e-02 -4.381533e-03
5.952000e+00 2.833714e-02 1.290905e-02 3.276229e-03 4.124619e-02 1.102889e-02 -4.421584e-03
5.956000e+00 3.436596e-02 -1.098101e-02 -1.958266e-02 2.338495e-02 1.102927e-02 -4.448222e-03
5.960000e+00 2.694314e-02 -1.952548e-02 -1.305759e-02 7.417657e-03 1.102442e-02 -4.427018e-03
5.964000e+00 2.383560e-02 -2.052949e-03 7.828767e-03 2.178266e-02 1.102153e-02 -4.385860e-03
5.968000e+00 1.872510e-02 1.747390e-02 1.610670e-02 3.619900e-02 1.102134e-02 -4.378359e-03
5.972000e+00 2.195881e-02 1.213246e-02 2.564328e-03 3.409127e-02 1.102268e-02 -4.415382e-03
5.976000e+00 2.330511e-02 -1.048143e-02 -1.485286e-02 1.282368e-02 1.102264e-02 -4.444807e-03
5.980000e+00 1.861899e-02 -1.868271e-02 -9.370746e-03 -6.371787e-05 1.102465e-02 -4.423844e-03
5.984000e+00 1.397146e-02 -1.512198e-03 1.029069e-02 1.245926e-02 1.102292e-02 -4.381917e-03
5.988000e+00 1.425202e-02 1.687043e-02 1.415843e-02 3.112245e-02 1.101634e-02 -4.373503e-03
5.992000e+00 1.587936e-02 1.143288e-02 -3.769795e-03 2.731224e-02 1.101461e-02 -4.413218e-03
5.996000e+00 1.572565e-02 -9.498640e-03 -1.328476e-02 6.227007e-03 1.101937e-02 -4.440865e-03
6.000000e+00 1.233664e-02 -1.713535e-02 -4.301095e-03 -4.798702e-03 1.102706e-02 -4.417401e-03
6.004000e+00 1.016942e-02 -8.333173e-04 1.237906e-02 9.336107e-03 1.102393e-02 -4.376148e-03
6.008000e+00 1.871683e-02 1.647476e-02 1.681072e-02 3.519159e-02 1.102841e-02 -4.364608e-03
6.012000e+00 2.365457e-02 1.030972e-02 1.451378e-03 3.396429e-02 1.102869e-02 -4.404420e-03
6.016000e+00 2.472790e-02 -1.083914e-02 -1.850850e-02 1.388876e-02 1.102740e-02 -4.435576e-03
6.020000e+00 1.316664e-02 -1.678153e-02 -1.434102e-02 -3.614887e-03 1.102514e-02 -4.416824e-03
6.024000e+00 4.657111e-03 1.157810e-03 6.688749e-03 5.814922e-03 1.101975e-02 -4.375907e-03
6.028000e+00 4.168691e-03 1.874669e-02 1.744273e-02 2.291538e-02 1.102014e-02 -4.364079e-03
6.032000e+00 1.584111e-02 1.156618e-02 5.491972e-03 2.740730e-02 1.103192e-02 -4.397544e-03
6.036000e+00 2.264495e-02 -1.116066e-02 -1.300447e-02 1.148429e-02 1.103259e-02 -4.428700e-03
6.040000e+00 2.067561e-02 -1.869186e-02 -1.574330e-02 1.983754e-03 1.103172e-02 -4.412737e-03
6.044000e+00 8.015698e-03 -4.387944e-04 4.044627e-03 7.576903e-03 1.102528e-02 -4.374176e-03
6.048000e+00 6.601828e-03 1.834888e-02 1.655118e-02 2.495071e-02 1.102610e-02 -4.361867e-03
6.052000e+00 1.249455e-02 1.207527e-02 1.657740e-03 2.456982e-02 1.102951e-02 -4.399131e-03
6.056000e+00 1.784017e-02 -1.042888e-02 -1.757829e-02 7.411298e-03 1.103038e-02 -4.429998e-03
6.060000e+00 1.079990e-02 -1.859209e-02 -1.564119e-02 -7.792195e-03 1.102543e-02 -4.415238e-03
6.064000e+00 5.474005e-03 -1.192614e-03 4.016410e-03 4.281390e-03 1.102797e-02 -4.376676e-03
6.068000e+00 4.095091e-03 1.828747e-02 1.845364e-02 2.238256e-02 1.103139e-02 -4.364945e-03
6.072000e+00 1.738909e-02 1.287696e-02 3.762453e-03 3.026606e-02 1.104086e-02 -4.397688e-03
6.076000e+00 2.049346e-02 -9.650585e-03 -1.773346e-02 1.084288e-02 1.103494e-02 -4.432499e-03
6.080000e+00 1.564884e-02 -1.881325e-02 -1.638003e-02 -3.164411e-03 1.103139e-02 -4.415045e-03
6.084000e+00 8.036347e-03 -2.389310e-03 9.724465e-03 5.647037e-03 1.103523e-02 -4.371436e-03
6.088000e+00 1.163769e-02 1.646538e-02 2.359559e-02 2.810307e-02 1.103788e-02 -4.357156e-03
6.092000e+00 1.926144e-02 1.204778e-02 6.635233e-03 3.130922e-02 1.104172e-02 -4.391437e-03
6.096000e+00 2.169391e-02 -9.187610e-03 -1.199209e-02 1.250630e-02 1.104225e-02 -4.423267e-03
6.100000e+00 1.773215e-02 -1.858361e-02 -1.062094e-02 -8.514516e-04 1.104509e-02 -4.409852e-03
6.104000e+00 1.182146e-02 -3.193756e-03 7.294676e-03 8.627706e-03 1.104076e-02 -4.368599e-03
6.108000e+00 1.196527e-02 1.590928e-02 1.225660e-02 2.787455e-02 1.104052e-02 -4.357252e-03
6.112000e+00 1.774155e-02 1.343687e-02 1.191286e-03 3.117843e-02 1.104398e-02 -4.395909e-03
6.116000e+00 1.646598e-02 -6.899122e-03 -1.545513e-02 9.566861e-03 1.104451e-02 -4.425960e-03
6.120000e+00 9.116065e-03 -1.630255e-02 -1.297781e-02 -7.186482e-03 1.104499e-02 -4.409997e-03
6.124000e+00 1.127630e-02 -1.916179e-03 7.242094e-03 9.360122e-03 1.104538e-02 -4.367397e-03
6.128000e+00 1.601824e-02 1.584161e-02 1.969459e-02 3.185985e-02 1.105158e-02 -4.349366e-03
6.132000e+00 2.271331e-02 1.178167e-02 7.840960e-03 3.449498e-02 1.105254e-02 -4.384995e-03
6.136000e+00 2.316596e-02 -8.798560e-03 -1.226857e-02 1.436740e-02 1.104990e-02 -4.413315e-03
6.140000e+00 1.251894e-02 -1.751802e-02 -1.123558e-02 -4.999083e-03 1.104716e-02 -4.399467e-03
6.144000e+00 9.776636e-03 -2.664879e-03 8.121406e-03 7.111757e-03 1.104850e-02 -4.362108e-03
6.148000e+00 1.069819e-02 1.539025e-02 1.962844e-02 2.608845e-02 1.105418e-02 -4.346818e-03
6.152000e+00 1.745747e-02 1.188738e-02 2.471934e-03 2.934485e-02 1.105663e-02 -4.382446e-03
6.156000e+00 1.906065e-02 -7.301709e-03 -1.990535e-02 1.175894e-02 1.105187e-02 -4.416584e-03
6.160000e+00 5.483404e-03 -1.506578e-02 -1.883406e-02 -9.582378e-03 1.104163e-02 -4.399996e-03
6.164000e+00 -3.158661e-04 -3.984857e-04 4.703300e-03 -7.143518e-04 1.104663e-02 -4.359319e-03
6.168000e+00 7.178901e-03 1.638249e-02 2.285632e-02 2.356139e-02 1.105495e-02 -4.347203e-03
6.172000e+00 1.571711e-02 1.127034e-02 3.403912e-03 2.698745e-02 1.106076e-02 -4.382302e-03
6.176000e+00 1.668402e-02 -8.381769e-03 -1.723384e-02 8.302252e-03 1.105788e-02 -4.414517e-03
6.180000e+00 1.386246e-02 -1.672955e-02 -1.539788e-02 -2.867092e-03 1.105605e-02 -4.395669e-03
6.184000e+00 8.212535e-03 -2.226857e-03 7.354422e-03 5.985678e-03 1.105653e-02 -4.353598e-03
6.188000e+00 1.207718e-02 1.514869e-02 2.014494e-02 2.722587e-02 1.105750e-02 -4.341049e-03
6.192000e+00 1.505711e-02 1.145945e-02 5.683255e-03 2.651656e-02 1.105990e-02 -4.373119e-03
6.196000e+00 1.445136e-02 -8.463352e-03 -1.101463e-02 5.988012e-03 1.105918e-02 -4.403506e-03
6.200000e+00 9.511943e-03 -1.803068e-02 -9.855176e-03 -8.518737e-03 1.105774e-02 -4.388216e-03
6.204000e+00 6.673743e-03 -3.776501e-03 8.272534e-03 2.897243e-03 1.106134e-02 -4.347924e-03
6.208000e+00 7.141837e-03 1.518537e-02 2.052921e-02 2.232721e-02 1.105999e-02 -4.328403e-03
6.212000e+00 1.254728e-02 1.291920e-02 3.872919e-03 2.546649e-02 1.105951e-02 -4.361483e-03
6.216000e+00 1.138573e-02 -6.530036e-03 -1.465959e-02 4.855698e-03 1.105639e-02 -4.395861e-03
6.220000e+00 9.573859e-04 -1.664738e-02 -1.175687e-02 -1.568999e-02 1.105682e-02 -4.382639e-03
6.224000e+00 -4.054190e-03 -3.569167e-03 8.093655e-03 -7.623357e-03 1.105519e-02 -4.340424e-03
6.228000e+00 -1.274655e-03 1.470329e-02 1.463290e-02 1.342863e-02 1.105591e-02 -4.325807e-03
6.232000e+00 4.009462e-03 1.353010e-02 2.197127e-03 1.753956e-02 1.105677e-02 -4.359560e-03
6.236000e+00 1.620528e-03 -5.547365e-03 -1.662663e-02 -3.926838e-03 1.105312e-02 -4.389370e-03
6.240000e+00 -4.388055e-03 -1.581414e-02 -1.317930e-02 -2.020219e-02 1.105370e-02 -4.374080e-03
6.244000e+00 -8.139234e-03 -3.483064e-03 5.888334e-03 -1.162230e-02 1.104740e-02 -4.336769e-03
6.248000e+00 -9.861305e-03 1.431608e-02 1.430904e-02 4.454771e-03 1.104932e-02 -4.324028e-03
6.252000e+00 -5.274037e-03 1.285289e-02 5.953151e-03 7.578858e-03 1.105677e-02 -4.355521e-03
6.256000e+00 -4.667473e-03 -6.734056e-03 -1.630903e-02 -1.140153e-02 1.104879e-02 -4.387014e-03
6.260000e+00 -1.771377e-02 -1.691604e-02 -2.170251e-02 -3.462981e-02 1.102908e-02 -4.372926e-03
6.264000e+00 -2.883882e-02 -3.729863e-03 3.725600e-04 -3.256868e-02 1.102143e-02 -4.333163e-03
6.268000e+00 -3.985180e-02 1.403570e-02 2.020729e-02 -2.581610e-02 1.101172e-02 -4.320806e-03
6.272000e+00 -3.875517e-02 1.140574e-02 5.188717e-03 -2.734943e-02 1.101701e-02 -4.355040e-03
6.276000e+00 -3.523203e-02 -7.402603e-03 -9.638856e-03 -4.263463e-02 1.102538e-02 -4.386966e-03
6.280000e+00 -4.146748e-02 -1.805509e-02 -1.241063e-02 -5.952257e-02 1.100735e-02 -4.370859e-03
6.284000e+00 -6.032042e-02 -5.551340e-03 -3.925775e-03 -6.587176e-02 1.097600e-02 -4.327153e-03
6.288000e+00 -7.012900e-02 1.388953e-02 1.325180e-02 -5.623947e-02 1.096614e-02 -4.312248e-03
6.292000e+00 -7.784472e-02 1.313727e-02 1.075893e-02 -6.470745e-02 1.096056e-02 -4.349126e-03
6.296000e+00 -8.604451e-02 -6.328055e-03 -9.191592e-03 -9.237257e-02 1.095830e-02 -4.383408e-03
6.300000e+00 -8.723252e-02 -1.736806e-02 -6.149719e-03 -1.046006e-01 1.096691e-02 -4.368359e-03
6.304000e+00 -6.717071e-02 -6.378923e-03 1.644554e-02 -7.354963e-02 1.099013e-02 -4.325326e-03
6.308000e+00 -4.504546e-02 1.078639e-02 2.068033e-02 -3.425907e-02 1.100456e-02 -4.313546e-03
6.312000e+00 -2.931645e-02 1.144106e-02 -5.738004e-03 -1.787539e-02 1.100701e-02 -4.348501e-03
6.316000e+00 -2.573951e-02 -3.531335e-03 -2.550432e-02 -2.927084e-02 1.100475e-02 -4.379658e-03
6.320000e+00 -2.847018e-02 -1.269188e-02 -1.520366e-02 -4.116205e-02 1.100884e-02 -4.364368e-03
6.324000e+00 -2.778295e-02 -2.805199e-03 1.337288e-02 -3.058815e-02 1.101687e-02 -4.322537e-03
6.328000e+00 -1.708791e-02 1.210855e-02 2.065127e-02 -4.979358e-03 1.102465e-02 -4.311382e-03
6.332000e+00 -3.241482e-03 1.103548e-02 2.850577e-03 7.794002e-03 1.103576e-02 -4.342635e-03
6.336000e+00 8.755469e-03 -5.757981e-03 -1.474736e-02 2.997487e-03 1.104716e-02 -4.373744e-03
6.340000e+00 2.006581e-02 -1.559870e-02 -1.301904e-02 4.467117e-03 1.106365e-02 -4.361098e-03
6.344000e+00 2.334965e-02 -4.022591e-03 6.749305e-03 1.932706e-02 1.106528e-02 -4.319075e-03
6.348000e+00 3.181624e-02 1.327410e-02 1.203965e-02 4.509035e-02 1.106894e-02 -4.305805e-03
6.352000e+00 3.865126e-02 1.303385e-02 3.141368e-03 5.168511e-02 1.107774e-02 -4.339558e-03
6.356000e+00 3.813084e-02 -5.294254e-03 -1.339685e-02 3.283659e-02 1.107879e-02 -4.371916e-03
6.360000e+00 3.255708e-02 -1.610725e-02 -1.817389e-02 1.644983e-02 1.107543e-02 -4.361291e-03
6.364000e+00 3.482934e-02 -3.634721e-03 2.994042e-03 3.119462e-02 1.108086e-02 -4.317296e-03
6.368000e+00 3.489411e-02 1.452645e-02 1.915604e-02 4.942056e-02 1.107855e-02 -4.301622e-03
6.372000e+00 3.623468e-02 1.313374e-02 1.561116e-03 4.936842e-02 1.107663e-02 -4.340327e-03
6.376000e+00 2.882455e-02 -5.297866e-03 -1.693549e-02 2.352668e-02 1.107490e-02 -4.374946e-03
6.380000e+00 2.056557e-02 -1.642163e-02 -1.573144e-02 4.143945e-03 1.106927e-02 -4.362204e-03
6.384000e+00 2.333175e-02 -4.859184e-03 4.535350e-03 1.847257e-02 1.107543e-02 -4.318739e-03
6.388000e+00 2.153265e-02 1.357800e-02 2.022428e-02 3.511064e-02 1.107024e-02 -4.303786e-03
6.392000e+00 2.350941e-02 1.303689e-02 2.527832e-03 3.654630e-02 1.106985e-02 -4.339510e-03
6.396000e+00 1.598908e-02 -5.004265e-03 -1.461118e-02 1.098481e-02 1.106567e-02 -4.373359e-03
6.400000e+00 -5.035384e-03 -1.687025e-02 -1.537827e-02 -2.190564e-02 1.103422e-02 -4.355858e-03
6.404000e+00 -4.068897e-02 -6.083599e-03 -5.583982e-03 -4.677257e-02 1.097979e-02 -4.314844e-03
6.408000e+00 -7.068304e-02 1.334927e-02 1.076367e-02 -5.733377e-02 1.095181e-02 -4.301189e-03
6.412000e+00 -7.721582e-02 1.402261e-02 2.208163e-02 -6.319320e-02 1.097427e-02 -4.333740e-03
6.416000e+00 -9.355050e-02 -6.490438e-03 5.241494e-03 -1.000409e-01 1.094874e-02 -4.368262e-03
6.420000e+00 -1.531663e-01 -2.013228e-02 -3.544135e-02 -1.732986e-01 1.083781e-02 -4.357396e-03
6.424000e+00 -2.459621e-01 -6.466760e-03 -3.793289e-02 -2.524289e-01 1.070169e-02 -4.321239e-03
6.428000e+00 -3.269261e-01 1.503528e-02 2.332067e-04 -3.118909e-01 1.062991e-02 -4.308786e-03
6.432000e+00 -2.806635e-01 1.478702e-02 5.554131e-02 -2.658764e-01 1.078920e-02 -4.338692e-03
6.436000e+00 -9.832046e-02 -9.185875e-03 1.121034e-01 -1.075063e-01 1.108581e-02 -4.364368e-03
6.440000e+00 1.052320e-01 -3.209524e-02 7.399165e-02 7.313679e-02 1.127025e-02 -4.346818e-03
6.444000e+00 2.379349e-01 -2.073719e-02 -2.984176e-02 2.171977e-01 1.130069e-02 -4.305372e-03
6.448000e+00 3.031688e-01 1.578829e-02 -7.402692e-02 3.189571e-01 1.130718e-02 -4.290419e-03
6.452000e+00 3.419769e-01 3.747870e-02 -4.825844e-02 3.794556e-01 1.137156e-02 -4.324508e-03
6.456000e+00 3.233522e-01 2.853504e-02 -2.700549e-02 3.518873e-01 1.138031e-02 -4.358887e-03
6.460000e+00 2.707254e-01 1.085265e-02 -2.737108e-02 2.815781e-01 1.133237e-02 -4.347395e-03
6.464000e+00 2.048255e-01 5.775371e-03 -6.458065e-04 2.106008e-01 1.125607e-02 -4.310853e-03
6.468000e+00 1.540306e-01 5.002251e-03 1.004434e-02 1.590328e-01 1.120583e-02 -4.296237e-03
6.472000e+00 1.166160e-01 9.476166e-04 -1.678926e-02 1.175636e-01 1.116068e-02 -4.338500e-03
6.476000e+00 9.002866e-02 -3.274477e-03 -4.306067e-02 8.675419e-02 1.112784e-02 -4.362396e-03
6.480000e+00 4.219620e-02 -2.803169e-03 -4.896972e-03 3.939303e-02 1.110500e-02 -4.337443e-03
6.484000e+00 5.960113e-03 -5.286344e-03 4.851320e-02 6.737692e-04 1.107528e-02 -4.294890e-03
6.488000e+00 -1.627540e-02 -1.287767e-02 5.106653e-02 -2.915307e-02 1.105586e-02 -4.283592e-03
6.492000e+00 -1.475225e-02 -1.960441e-02 1.203728e-02 -3.435665e-02 1.104620e-02 -4.323354e-03
6.496000e+00 -2.498434e-02 -1.846969e-02 -2.499903e-02 -4.345403e-02 1.103345e-02 -4.356723e-03
6.500000e+00 -4.833804e-02 -6.529551e-03 -1.742068e-02 -5.486759e-02 1.103259e-02 -4.338789e-03
6.504000e+00 -6.692944e-02 8.138239e-03 1.372548e-02 -5.879120e-02 1.102206e-02 -4.298353e-03
6.508000e+00 -5.823953e-02 1.363855e-02 3.111573e-02 -4.460098e-02 1.102369e-02 -4.274601e-03
6.512000e+00 -4.442332e-02 4.623477e-03 2.174404e-02 -3.979985e-02 1.103716e-02 -4.302151e-03
6.516000e+00 -4.738268e-02 -9.757453e-03 -2.704973e-03 -5.714013e-02 1.103115e-02 -4.343741e-03
6.520000e+00 -6.304631e-02 -1.169271e-02 -2.362334e-02 -7.473903e-02 1.101879e-02 -4.334221e-03
6.524000e+00 -5.979826e-02 5.064534e-03 -2.178653e-03 -5.473372e-02 1.103317e-02 -4.272629e-03
6.528000e+00 -3.137587e-02 1.955419e-02 2.801582e-02 -1.182168e-02 1.104062e-02 -4.249454e-03
6.532000e+00 -3.929957e-02 1.274575e-02 -1.362407e-03 -2.655382e-02 1.100720e-02 -4.311382e-03
6.536000e+00 -8.616960e-02 -5.046539e-03 -3.250354e-02 -9.121614e-02 1.098706e-02 -4.366724e-03
6.540000e+00 -1.029255e-01 -1.549816e-02 -2.525142e-02 -1.184237e-01 1.099528e-02 -4.352732e-03
6.544000e+00 -8.080517e-02 -7.315625e-03 -1.279214e-02 -8.812080e-02 1.099186e-02 -4.300901e-03
6.548000e+00 -5.567092e-02 1.216961e-02 -2.178781e-03 -4.350131e-02 1.099225e-02 -4.278976e-03
6.552000e+00 -6.044627e-02 1.771572e-02 9.692116e-03 -4.273055e-02 1.099177e-02 -4.311142e-03
6.556000e+00 -7.607612e-02 -1.098407e-03 4.206287e-03 -7.717452e-02 1.099335e-02 -4.344126e-03
6.560000e+00 -6.999481e-02 -2.133322e-02 -1.622625e-03 -9.132803e-02 1.100427e-02 -4.331577e-03
6.564000e+00 -5.642199e-02 -2.023948e-02 -1.089211e-04 -7.666147e-02 1.098273e-02 -4.300228e-03
6.568000e+00 -4.153936e-02 -2.874661e-03 9.539951e-03 -4.441402e-02 1.099172e-02 -4.270658e-03
6.572000e+00 -5.908867e-02 6.563320e-03 3.941426e-03 -5.252535e-02 1.098119e-02 -4.324941e-03
6.576000e+00 -6.762819e-02 -4.550592e-04 -2.323642e-02 -6.808325e-02 1.097946e-02 -4.364849e-03
6.580000e+00 -9.274576e-02 -6.659331e-03 -1.705885e-02 -9.940509e-02 1.097835e-02 -4.343549e-03
6.584000e+00 -7.424784e-02 -2.727557e-03 7.475970e-03 -7.697540e-02 1.097157e-02 -4.303978e-03
6.588000e+00 -6.376837e-02 7.902499e-03 1.860582e-02 -5.586588e-02 1.097167e-02 -4.288400e-03
6.592000e+00 -6.582060e-02 1.105794e-02 5.656952e-03 -5.476266e-02 1.097576e-02 -4.322249e-03
6.596000e+00 -6.559730e-02 2.208228e-03 -1.708584e-02 -6.338907e-02 1.097504e-02 -4.359223e-03
6.600000e+00 -6.705010e-02 -6.117758e-03 -1.558478e-02 -7.316786e-02 1.097143e-02 -4.347636e-03
6.604000e+00 -6.896103e-02 -4.407947e-03 1.229422e-02 -7.336897e-02 1.097061e-02 -4.306286e-03
6.608000e+00 -5.987807e-02 1.392389e-03 2.961116e-02 -5.848568e-02 1.096494e-02 -4.289217e-03
6.612000e+00 -4.639419e-02 6.134742e-04 9.568065e-04 -4.578071e-02 1.097013e-02 -4.320710e-03
6.616000e+00 -4.772471e-02 -4.681742e-03 -1.733058e-02 -5.240645e-02 1.097196e-02 -4.353790e-03
6.620000e+00 -5.295673e-02 -9.099692e-03 -1.054732e-02 -6.205642e-02 1.096629e-02 -4.342251e-03
6.624000e+00 -5.944366e-02 -5.406238e-03 1.337151e-02 -6.484990e-02 1.096672e-02 -4.303065e-03
6.628000e+00 -5.141456e-02 1.251412e-03 2.652377e-02 -5.016315e-02 1.096518e-02 -4.289987e-03
6.632000e+00 -3.829087e-02 4.506644e-04 -1.543823e-03 -3.784021e-02 1.096619e-02 -4.325711e-03
6.636000e+00 -4.370054e-02 -4.815410e-03 -2.381597e-02 -4.851595e-02 1.096412e-02 -4.357156e-03
6.640000e+00 -5.737493e-02 -6.395987e-03 -1.579611e-02 -6.377092e-02 1.095566e-02 -4.344462e-03
6.644000e+00 -6.324685e-02 1.077265e-03 9.096980e-03 -6.216959e-02 1.094744e-02 -4.302295e-03
6.648000e+00 -6.446114e-02 9.830654e-03 1.907731e-02 -5.463048e-02 1.093753e-02 -4.289650e-03
6.652000e+00 -6.098101e-02 7.277260e-03 2.722572e-03 -5.370375e-02 1.093046e-02 -4.327586e-03
6.656000e+00 -7.476242e-02 -5.014454e-03 -1.852079e-02 -7.977687e-02 1.091647e-02 -4.359944e-03
6.660000e+00 -8.641726e-02 -1.126941e-02 -1.400372e-02 -9.768667e-02 1.091643e-02 -4.345520e-03
6.664000e+00 -8.074902e-02 -2.577883e-03 1.181140e-02 -8.332690e-02 1.091373e-02 -4.304988e-03
6.668000e+00 -7.802690e-02 9.843823e-03 1.691081e-02 -6.818308e-02 1.090171e-02 -4.287342e-03
6.672000e+00 -7.830410e-02 9.877771e-03 4.061155e-03 -6.842632e-02 1.089753e-02 -4.324797e-03
6.676000e+00 -7.861691e-02 -4.331890e-03 -2.837155e-03 -8.294880e-02 1.090291e-02 -4.346818e-03
6.680000e+00 -8.630257e-02 -1.537042e-02 -5.443038e-03 -1.016730e-01 1.089758e-02 -4.336625e-03
6.684000e+00 -7.352890e-02 -6.909539e-03 4.891790e-03 -8.043844e-02 1.089373e-02 -4.297583e-03
6.688000e+00 -7.483514e-02 1.006783e-02 1.277455e-02 -6.476731e-02 1.088642e-02 -4.285996e-03
6.692000e+00 -7.184438e-02 1.208713e-02 5.298750e-03 -5.975724e-02 1.089056e-02 -4.320133e-03
6.696000e+00 -6.615766e-02 -3.275097e-03 2.327874e-04 -6.943275e-02 1.091133e-02 -4.337106e-03
6.700000e+00 -4.692867e-02 -1.586551e-02 5.939504e-03 -6.279418e-02 1.092801e-02 -4.311046e-03
6.704000e+00 -1.734031e-02 -8.726250e-03 1.079476e-02 -2.606656e-02 1.093772e-02 -4.276572e-03
6.708000e+00 -1.674927e-02 9.602204e-03 4.201387e-03 -7.147065e-03 1.092330e-02 -4.286092e-03
6.712000e+00 -2.189386e-02 1.569326e-02 -7.782219e-03 -6.200606e-03 1.094080e-02 -4.313017e-03
6.716000e+00 -1.744770e-02 3.186516e-03 -9.683317e-03 -1.426118e-02 1.096253e-02 -4.342010e-03
6.720000e+00 9.535599e-03 -1.037116e-02 -1.752818e-02 -8.355598e-04 1.096975e-02 -4.329990e-03
6.724000e+00 2.206652e-02 -4.294016e-03 -4.886749e-03 1.777250e-02 1.098071e-02 -4.288352e-03
6.728000e+00 4.541209e-02 1.028101e-02 1.995155e-02 5.569310e-02 1.099744e-02 -4.266186e-03
6.732000e+00 6.326430e-02 1.159943e-02 9.760083e-03 7.486373e-02 1.101802e-02 -4.293400e-03
6.736000e+00 6.750185e-02 6.177562e-04 -1.080154e-02 6.811961e-02 1.102605e-02 -4.328788e-03
6.740000e+00 6.741362e-02 -7.684297e-03 -1.298137e-02 5.972932e-02 1.103264e-02 -4.314412e-03
6.744000e+00 7.613607e-02 -2.752679e-03 1.120259e-02 7.338340e-02 1.104091e-02 -4.268398e-03
6.748000e+00 9.259520e-02 6.891599e-03 1.788602e-02 9.948680e-02 1.104499e-02 -4.254551e-03
6.752000e+00 1.030921e-01 9.205336e-03 1.441904e-03 1.122975e-01 1.105951e-02 -4.288977e-03
6.756000e+00 9.750963e-02 1.638449e-03 -1.696430e-02 9.914808e-02 1.106615e-02 -4.324220e-03
6.760000e+00 8.304762e-02 -4.677987e-03 -2.184312e-02 7.836963e-02 1.105716e-02 -4.318018e-03
6.764000e+00 8.694211e-02 4.359854e-04 -8.376840e-04 8.737810e-02 1.106211e-02 -4.273254e-03
6.768000e+00 9.548218e-02 9.027991e-03 1.630222e-02 1.045102e-01 1.106490e-02 -4.256570e-03
6.772000e+00 1.068860e-01 7.785260e-03 3.980170e-04 1.146713e-01 1.106903e-02 -4.291910e-03
6.776000e+00 9.385215e-02 -1.855605e-03 -2.119787e-02 9.199655e-02 1.106591e-02 -4.326288e-03
6.780000e+00 7.918738e-02 -8.237481e-03 -1.624322e-02 7.094990e-02 1.106264e-02 -4.314412e-03
6.784000e+00 7.943160e-02 -3.595752e-03 6.597399e-03 7.583585e-02 1.106028e-02 -4.274408e-03
6.788000e+00 8.026876e-02 5.515193e-03 1.769728e-02 8.578395e-02 1.105336e-02 -4.255608e-03
6.792000e+00 8.335602e-02 5.310222e-03 3.370200e-03 8.866624e-02 1.105591e-02 -4.290082e-03
6.796000e+00 7.783483e-02 -5.224645e-03 -1.274724e-02 7.261018e-02 1.105942e-02 -4.324412e-03
6.800000e+00 6.253826e-02 -1.253640e-02 -1.069738e-02 5.000186e-02 1.105523e-02 -4.309940e-03
6.804000e+00 6.104137e-02 -5.488120e-03 6.696111e-03 5.555325e-02 1.104990e-02 -4.270370e-03
6.808000e+00 5.982434e-02 8.011245e-03 1.911797e-02 6.783558e-02 1.104091e-02 -4.250656e-03
6.812000e+00 6.130203e-02 9.464870e-03 7.561650e-03 7.076690e-02 1.105047e-02 -4.283159e-03
6.816000e+00 5.266775e-02 -2.719979e-03 -9.674064e-03 4.994777e-02 1.104629e-02 -4.321624e-03
6.820000e+00 3.937213e-02 -1.140328e-02 -2.038610e-02 2.796885e-02 1.103903e-02 -4.315950e-03
6.824000e+00 3.664640e-02 -2.080966e-03 8.657297e-04 3.456544e-02 1.104307e-02 -4.276524e-03
6.828000e+00 4.069811e-02 1.153628e-02 2.315742e-02 5.223439e-02 1.103932e-02 -4.247146e-03
6.832000e+00 4.948989e-02 9.530201e-03 8.437834e-03 5.902010e-02 1.104307e-02 -4.274697e-03
6.836000e+00 4.664887e-02 -5.427559e-03 -9.330802e-03 4.122131e-02 1.103869e-02 -4.311623e-03
6.840000e+00 3.481251e-02 -1.454375e-02 -7.097064e-03 2.026876e-02 1.103884e-02 -4.293737e-03
6.844000e+00 2.497983e-02 -4.176232e-03 1.099890e-02 2.080360e-02 1.103119e-02 -4.255272e-03
6.848000e+00 2.701312e-02 1.281483e-02 2.086096e-02 3.982794e-02 1.102889e-02 -4.235270e-03
6.852000e+00 2.942167e-02 1.343915e-02 1.165371e-02 4.286082e-02 1.103956e-02 -4.263878e-03
6.856000e+00 2.524370e-02 -3.901738e-03 -1.443614e-02 2.134196e-02 1.102841e-02 -4.307873e-03
6.860000e+00 1.719135e-02 -1.395971e-02 -2.394802e-02 3.231648e-03 1.102687e-02 -4.297199e-03
6.864000e+00 1.202536e-02 -2.046450e-03 2.374747e-03 9.978913e-03 1.102970e-02 -4.251906e-03
6.868000e+00 1.897583e-02 1.415498e-02 1.510932e-02 3.313081e-02 1.102778e-02 -4.238924e-03
6.872000e+00 1.684727e-02 1.383558e-02 -5.274449e-03 3.068286e-02 1.102091e-02 -4.281573e-03
6.876000e+00 7.928790e-03 -1.619301e-03 -2.185539e-02 6.309489e-03 1.102485e-02 -4.311190e-03
6.880000e+00 5.392769e-03 -1.271517e-02 -1.476149e-02 -7.322402e-03 1.102600e-02 -4.301189e-03
6.884000e+00 1.104937e-02 -5.510145e-03 -3.568791e-03 5.539227e-03 1.101831e-02 -4.266042e-03
6.888000e+00 6.375208e-03 1.085524e-02 8.608699e-03 1.723045e-02 1.101735e-02 -4.251041e-03
6.892000e+00 1.277757e-02 1.218146e-02 8.237824e-03 2.495903e-02 1.102490e-02 -4.277293e-03
6.896000e+00 1.084881e-02 -4.575370e-03 -1.074204e-02 6.273438e-03 1.102206e-02 -4.309556e-03
6.900000e+00 7.614704e-03 -1.586337e-02 -8.772249e-03 -8.248671e-03 1.102014e-02 -4.291717e-03
6.904000e+00 8.921807e-03 -8.152763e-03 5.195883e-03 7.690442e-04 1.102139e-02 -4.267821e-03
6.908000e+00 9.058529e-03 8.148179e-03 1.815329e-02 1.720671e-02 1.101893e-02 -4.250320e-03
6.912000e+00 3.406952e-03 9.916636e-03 7.899783e-05 1.332359e-02 1.101980e-02 -4.282197e-03
6.916000e+00 5.996879e-03 -3.062887e-03 -1.620136e-02 2.933992e-03 1.101470e-02 -4.317633e-03
6.920000e+00 -9.446747e-06 -1.237023e-02 -1.467294e-02 -1.237967e-02 1.102009e-02 -4.304170e-03
6.924000e+00 1.032808e-03 -3.607451e-03 1.615592e-02 -2.574642e-03 1.102754e-02 -4.256906e-03
6.928000e+00 5.700297e-03 9.408428e-03 1.900216e-02 1.510873e-02 1.101124e-02 -4.246040e-03
6.932000e+00 1.061213e-02 1.022629e-02 -3.104010e-03 2.083842e-02 1.101812e-02 -4.284169e-03
6.936000e+00 9.118307e-03 -2.347450e-03 -1.704072e-03 6.770857e-03 1.103865e-02 -4.307392e-03
6.940000e+00 1.072533e-02 -1.399442e-02 -4.673965e-03 -3.269091e-03 1.103745e-02 -4.301237e-03
6.944000e+00 9.555483e-03 -5.606127e-03 -7.379915e-03 3.949355e-03 1.102081e-02 -4.271812e-03
6.948000e+00 2.909616e-03 1.268842e-02 7.479465e-03 1.559804e-02 1.101951e-02 -4.249743e-03
6.952000e+00 7.383532e-03 1.345663e-02 6.324575e-03 2.084017e-02 1.102432e-02 -4.284601e-03
6.956000e+00 6.224409e-03 -3.626158e-03 -2.221257e-02 2.598251e-03 1.102071e-02 -4.334990e-03
6.960000e+00 -7.358333e-03 -1.246487e-02 -2.159352e-02 -1.982320e-02 1.102350e-02 -4.322249e-03
6.964000e+00 1.868915e-03 -2.738445e-03 9.469707e-03 -8.695295e-04 1.103937e-02 -4.273495e-03
6.968000e+00 2.682339e-02 1.062240e-02 3.106324e-02 3.744579e-02 1.105182e-02 -4.241665e-03
6.972000e+00 5.052847e-02 7.861366e-03 1.941452e-02 5.838984e-02 1.107081e-02 -4.263061e-03
6.976000e+00 5.920381e-02 -8.582799e-03 1.103114e-03 5.062101e-02 1.107274e-02 -4.296333e-03
6.980000e+00 4.993832e-02 -1.810021e-02 -9.075848e-03 3.183811e-02 1.106745e-02 -4.290948e-03
6.984000e+00 4.278935e-02 -6.230904e-03 1.120711e-02 3.655844e-02 1.107721e-02 -4.251041e-03
6.988000e+00 3.607213e-02 1.125206e-02 2.231794e-02 4.732420e-02 1.106649e-02 -4.236857e-03
6.992000e+00 3.627415e-02 1.349866e-02 -7.240560e-03 4.977281e-02 1.106355e-02 -4.275995e-03
6.996000e+00 2.912859e-02 2.267183e-03 -2.306342e-02 3.139577e-02 1.106966e-02 -4.310084e-03
7.000000e+00 2.472254e-02 -7.176231e-03 -2.029558e-02 1.754631e-02 1.107004e-02 -4.303978e-03
7.004000e+00 2.699840e-02 2.405731e-04 -3.121331e-03 2.723897e-02 1.107009e-02 -4.262676e-03
7.008000e+00 2.910649e-02 1.475161e-02 1.308627e-02 4.385809e-02 1.107211e-02 -4.244069e-03
7.012000e+00 3.400909e-02 1.444521e-02 2.152612e-03 4.845430e-02 1.107000e-02 -4.281957e-03
7.016000e+00 2.313582e-02 -1.452129e-03 -2.262543e-02 2.168369e-02 1.106120e-02 -4.319268e-03
7.020000e+00 9.388889e-03 -1.266364e-02 -2.053501e-02 -3.274752e-03 1.105427e-02 -4.307151e-03
7.024000e+00 1.851687e-02 -6.510564e-03 9.520653e-03 1.200631e-02 1.106182e-02 -4.257532e-03
7.028000e+00 2.586990e-02 6.132282e-03 2.723858e-02 3.200218e-02 1.106394e-02 -4.239501e-03
7.032000e+00 2.405924e-02 6.199602e-03 9.441096e-03 3.025884e-02 1.105543e-02 -4.275995e-03
7.036000e+00 1.738412e-02 -7.204965e-03 -9.528031e-03 1.017916e-02 1.106221e-02 -4.304411e-03
7.040000e+00 1.038811e-02 -1.699963e-02 -4.909549e-03 -6.611521e-03 1.106004e-02 -4.291573e-03
7.044000e+00 9.984791e-03 -9.064074e-03 4.861998e-03 9.207177e-04 1.104788e-02 -4.254310e-03
7.048000e+00 1.715066e-03 9.109270e-03 1.170469e-02 1.082434e-02 1.104047e-02 -4.243060e-03
7.052000e+00 1.259797e-03 1.387061e-02 9.316792e-03 1.513041e-02 1.105500e-02 -4.269744e-03
7.056000e+00 -4.239850e-04 -7.617186e-04 -4.170604e-03 -1.185704e-03 1.105745e-02 -4.301622e-03
7.060000e+00 -4.344409e-03 -1.332710e-02 -1.794761e-02 -1.767151e-02 1.104495e-02 -4.293689e-03
7.064000e+00 -9.502600e-03 -4.713717e-03 1.014852e-03 -1.421632e-02 1.104081e-02 -4.249935e-03
7.068000e+00 -3.193145e-03 1.140977e-02 2.337660e-02 8.216624e-03 1.104581e-02 -4.227433e-03
7.072000e+00 -1.092381e-03 1.234029e-02 9.893940e-03 1.124791e-02 1.104673e-02 -4.258638e-03
7.076000e+00 -3.252740e-03 -2.114046e-03 -1.136198e-02 -5.366786e-03 1.104817e-02 -4.293833e-03
7.080000e+00 -1.694744e-02 -1.318014e-02 -1.442524e-02 -3.012759e-02 1.103562e-02 -4.287005e-03
7.084000e+00 -1.899672e-02 -5.859350e-03 1.642929e-03 -2.485607e-02 1.103668e-02 -4.247339e-03
7.088000e+00 -1.546029e-02 9.995816e-03 1.536332e-02 -5.464476e-03 1.103768e-02 -4.232482e-03
7.092000e+00 -8.682629e-03 1.227255e-02 -2.116007e-03 3.589924e-03 1.104033e-02 -4.266042e-03
7.096000e+00 -1.191796e-02 -8.145192e-04 -1.877322e-02 -1.273248e-02 1.104187e-02 -4.299218e-03
7.100000e+00 -1.739139e-02 -1.233565e-02 -1.680808e-02 -2.972704e-02 1.103903e-02 -4.291813e-03
7.104000e+00 -1.215308e-02 -6.527840e-03 5.094106e-03 -1.868092e-02 1.104648e-02 -4.249743e-03
7.108000e+00 -8.960378e-03 7.788628e-03 1.566485e-02 -1.171750e-03 1.104052e-02 -4.235174e-03
7.112000e+00 -5.165491e-03 1.050784e-02 -4.098782e-03 5.342353e-03 1.103836e-02 -4.270562e-03
7.116000e+00 -1.344564e-02 -1.593741e-03 -1.866063e-02 -1.503938e-02 1.103817e-02 -4.306671e-03
7.120000e+00 -1.663423e-02 -1.277451e-02 -1.036047e-02 -2.940873e-02 1.104499e-02 -4.290564e-03
7.124000e+00 -1.486515e-02 -7.033790e-03 9.396665e-03 -2.189894e-02 1.103889e-02 -4.250656e-03
7.128000e+00 -1.165822e-02 8.052721e-03 1.370669e-02 -3.605499e-03 1.102970e-02 -4.235511e-03
7.132000e+00 -1.369765e-02 1.151880e-02 7.393940e-03 -2.178848e-03 1.103581e-02 -4.264119e-03
7.136000e+00 -1.228892e-02 -3.093046e-03 -2.587481e-03 -1.538197e-02 1.104293e-02 -4.292246e-03
7.140000e+00 -1.225770e-02 -1.558873e-02 -8.467976e-03 -2.784643e-02 1.104355e-02 -4.284601e-03
7.144000e+00 -1.526849e-02 -7.145404e-03 -2.179268e-03 -2.241390e-02 1.103038e-02 -4.260561e-03
7.148000e+00 -2.539990e-02 1.157659e-02 7.460568e-03 -1.382332e-02 1.102408e-02 -4.243925e-03
7.152000e+00 -3.076240e-02 1.508488e-02 4.647066e-03 -1.567752e-02 1.102543e-02 -4.268975e-03
7.156000e+00 -2.675765e-02 -1.137980e-03 -1.587045e-02 -2.789563e-02 1.102086e-02 -4.304748e-03
7.160000e+00 -3.135966e-02 -1.336242e-02 -1.717814e-02 -4.472208e-02 1.101701e-02 -4.296141e-03
7.164000e+00 -3.132479e-02 -6.163597e-03 1.115395e-02 -3.748838e-02 1.102081e-02 -4.248060e-03
7.168000e+00 -2.247158e-02 7.849544e-03 2.936376e-02 -1.462204e-02 1.102672e-02 -4.228347e-03
7.172000e+00 -1.340116e-02 8.251227e-03 1.370051e-02 -5.149938e-03 1.102730e-02 -4.257916e-03
7.176000e+00 -1.794626e-02 -5.843156e-03 -1.046109e-02 -2.378941e-02 1.102764e-02 -4.289794e-03
7.180000e+00 -2.568595e-02 -1.555516e-02 -1.466990e-02 -4.124111e-02 1.101605e-02 -4.289121e-03
7.184000e+00 -2.910887e-02 -6.534591e-03 -9.291596e-05 -3.564346e-02 1.101533e-02 -4.247531e-03
7.188000e+00 -3.197558e-02 1.099516e-02 1.966693e-02 -2.098043e-02 1.101807e-02 -4.229116e-03
7.192000e+00 -2.743430e-02 1.313275e-02 3.520923e-03 -1.430155e-02 1.101018e-02 -4.264167e-03
7.196000e+00 -4.259290e-02 -6.668740e-04 -2.176899e-02 -4.325978e-02 1.099682e-02 -4.298401e-03
7.200000e+00 -5.663226e-02 -1.146401e-02 -1.885839e-02 -6.809627e-02 1.098427e-02 -4.288304e-03
7.204000e+00 -5.462041e-02 -5.099330e-03 5.036861e-03 -5.971974e-02 1.098590e-02 -4.247339e-03
7.208000e+00 -5.053020e-02 9.892111e-03 1.982449e-02 -4.063809e-02 1.098667e-02 -4.233924e-03
7.212000e+00 -4.526382e-02 1.238631e-02 4.746145e-03 -3.287751e-02 1.099475e-02 -4.268013e-03
7.216000e+00 -5.664491e-02 -1.417406e-03 -1.471753e-02 -5.806232e-02 1.097600e-02 -4.302391e-03
7.220000e+00 -7.753222e-02 -1.382507e-02 -2.870509e-02 -9.135729e-02 1.094027e-02 -4.292967e-03
7.224000e+00 -9.038433e-02 -5.705786e-03 -3.197505e-03 -9.609011e-02 1.092700e-02 -4.251762e-03
7.228000e+00 -9.115398e-02 1.020525e-02 2.314379e-02 -8.094873e-02 1.092614e-02 -4.237145e-03
7.232000e+00 -9.069942e-02 1.161937e-02 1.464215e-02 -7.908006e-02 1.093575e-02 -4.268302e-03
7.236000e+00 -8.462021e-02 -3.834268e-03 -2.992201e-03 -8.845448e-02 1.094532e-02 -4.302824e-03
7.240000e+00 -6.744773e-02 -1.741269e-02 -7.971926e-03 -8.486042e-02 1.096407e-02 -4.293689e-03
7.244000e+00 -4.403419e-02 -1.069779e-02 9.748253e-03 -5.473198e-02 1.098335e-02 -4.254166e-03
7.248000e+00 -2.665524e-02 7.229611e-03 1.321893e-02 -1.942563e-02 1.098369e-02 -4.233587e-03
7.252000e+00 -2.075162e-02 1.436945e-02 -4.340415e-04 -6.382177e-03 1.098287e-02 -4.255464e-03
7.256000e+00 -1.600735e-02 2.160743e-03 -7.061890e-03 -1.384660e-02 1.099316e-02 -4.286188e-03
7.260000e+00 -2.009098e-02 -1.274101e-02 -3.265472e-03 -3.283199e-02 1.099557e-02 -4.286621e-03
7.264000e+00 -2.098779e-02 -9.328645e-03 5.356844e-03 -3.031644e-02 1.099340e-02 -4.252387e-03
7.268000e+00 -8.146878e-03 7.560144e-03 1.503565e-02 -5.867341e-04 1.101143e-02 -4.227241e-03
7.272000e+00 1.741627e-02 1.345784e-02 8.512761e-03 3.087411e-02 1.103398e-02 -4.258157e-03
7.276000e+00 1.940961e-02 1.099894e-03 -2.367839e-02 2.050950e-02 1.102465e-02 -4.303930e-03
7.280000e+00 1.301160e-02 -8.702047e-03 -2.813755e-02 4.309550e-03 1.103192e-02 -4.291765e-03
7.284000e+00 2.008614e-02 -2.262309e-03 5.755874e-03 1.782384e-02 1.103927e-02 -4.249358e-03
7.288000e+00 3.431854e-02 1.023951e-02 1.907287e-02 4.455805e-02 1.104153e-02 -4.229020e-03
7.292000e+00 3.550331e-02 1.199736e-02 5.812322e-03 4.750067e-02 1.104644e-02 -4.259984e-03
7.296000e+00 3.028816e-02 -1.897142e-03 -1.777798e-02 2.839102e-02 1.103855e-02 -4.303834e-03
7.300000e+00 2.692199e-02 -1.327060e-02 -2.070119e-02 1.365140e-02 1.104182e-02 -4.293304e-03
7.304000e+00 2.862873e-02 -6.582987e-03 6.166348e-03 2.204574e-02 1.104711e-02 -4.247579e-03
7.308000e+00 3.558883e-02 8.030724e-03 2.180729e-02 4.361955e-02 1.104172e-02 -4.229789e-03
7.312000e+00 3.471898e-02 1.041083e-02 6.632500e-03 4.512980e-02 1.103990e-02 -4.259551e-03
7.316000e+00 2.488827e-02 -3.128771e-03 -7.775956e-03 2.175949e-02 1.104163e-02 -4.287967e-03
7.320000e+00 2.890230e-02 -1.562710e-02 -5.576543e-03 1.327520e-02 1.104543e-02 -4.278639e-03
7.324000e+00 2.876773e-02 -9.144313e-03 7.445747e-04 1.962342e-02 1.103898e-02 -4.252387e-03
7.328000e+00 1.874450e-02 9.812522e-03 1.258005e-02 2.855702e-02 1.103523e-02 -4.235414e-03
7.332000e+00 1.446409e-02 1.492011e-02 4.025402e-03 2.938420e-02 1.103523e-02 -4.263927e-03
7.336000e+00 -4.427791e-03 4.014643e-04 -2.248629e-02 -4.026327e-03 1.099912e-02 -4.298881e-03
7.340000e+00 -3.914794e-02 -1.228526e-02 -3.188253e-02 -5.143320e-02 1.094922e-02 -4.288159e-03
7.344000e+00 -6.847245e-02 -4.979752e-03 8.898621e-04 -7.345220e-02 1.092244e-02 -4.242963e-03
7.348000e+00 -7.606152e-02 1.044392e-02 3.592877e-02 -6.561760e-02 1.093215e-02 -4.225365e-03
7.352000e+00 -9.806605e-02 1.060398e-02 2.506377e-02 -8.746207e-02 1.089777e-02 -4.254743e-03
7.356000e+00 -1.629708e-01 -6.456500e-03 -3.068639e-02 -1.694273e-01 1.078718e-02 -4.289410e-03
7.360000e+00 -2.619337e-01 -1.686229e-02 -5.267280e-02 -2.787960e-01 1.064400e-02 -4.286957e-03
7.364000e+00 -3.387748e-01 -7.754170e-03 -1.164972e-02 -3.465290e-01 1.057995e-02 -4.250800e-03
7.368000e+00 -2.815563e-01 7.471390e-03 7.713807e-02 -2.740849e-01 1.075559e-02 -4.225606e-03
7.372000e+00 -8.224156e-02 1.878281e-03 1.369306e-01 -8.036328e-02 1.106278e-02 -4.252243e-03
7.376000e+00 1.204295e-01 -2.393146e-02 5.850778e-02 9.649806e-02 1.123179e-02 -4.300083e-03
7.380000e+00 2.382915e-01 -2.773710e-02 -6.928362e-02 2.105544e-01 1.126184e-02 -4.286476e-03
7.384000e+00 3.010433e-01 5.340033e-03 -8.864652e-02 3.063833e-01 1.128295e-02 -4.244021e-03
7.388000e+00 3.448323e-01 4.305135e-02 -3.451919e-02 3.878837e-01 1.133473e-02 -4.225077e-03
7.392000e+00 3.190957e-01 5.255448e-02 -1.614369e-02 3.716502e-01 1.133377e-02 -4.258157e-03
7.396000e+00 2.624394e-01 3.189233e-02 -2.588769e-02 2.943317e-01 1.128001e-02 -4.293593e-03
7.400000e+00 1.914866e-01 9.515676e-04 -1.579161e-02 1.924381e-01 1.120496e-02 -4.287582e-03
7.404000e+00 1.416619e-01 -1.543439e-02 4.655204e-03 1.262275e-01 1.115265e-02 -4.246377e-03
7.408000e+00 1.143414e-01 -6.120279e-03 6.805319e-03 1.082211e-01 1.111231e-02 -4.222913e-03
7.412000e+00 8.854384e-02 1.097832e-02 -1.590294e-02 9.952216e-02 1.107072e-02 -4.253204e-03
7.416000e+00 3.624480e-02 9.934143e-03 -1.172638e-02 4.617894e-02 1.103980e-02 -4.289890e-03
7.420000e+00 -1.459482e-02 -1.545424e-02 2.470043e-02 -3.004906e-02 1.101788e-02 -4.280130e-03
7.424000e+00 -2.544254e-02 -3.782409e-02 4.130551e-02 -6.326663e-02 1.100263e-02 -4.237097e-03
7.428000e+00 -1.288552e-02 -2.947458e-02 2.552221e-02 -4.236010e-02 1.099263e-02 -4.217961e-03
7.432000e+00 -1.718734e-02 -3.006737e-03 -2.354924e-03 -2.019407e-02 1.098629e-02 -4.249454e-03
7.436000e+00 -4.706337e-02 9.710350e-03 -1.632580e-02 -3.735302e-02 1.098148e-02 -4.285226e-03
7.440000e+00 -7.067426e-02 1.442366e-03 -8.937784e-03 -6.923190e-02 1.097225e-02 -4.276812e-03
7.444000e+00 -6.460328e-02 -5.996102e-03 1.262632e-02 -7.059938e-02 1.096744e-02 -4.234309e-03
7.448000e+00 -5.467614e-02 9.834814e-04 3.026977e-02 -5.369266e-02 1.096903e-02 -4.210797e-03
7.452000e+00 -5.770907e-02 8.572898e-03 1.661847e-02 -4.913618e-02 1.097229e-02 -4.243444e-03
7.456000e+00 -6.693740e-02 3.967951e-03 -1.649755e-02 -6.296944e-02 1.096653e-02 -4.278110e-03
7.460000e+00 -5.942279e-02 -3.751464e-03 -2.572102e-02 -6.317426e-02 1.097345e-02 -4.258878e-03
7.464000e+00 -4.582266e-02 5.497050e-04 -4.352038e-03 -4.527295e-02 1.096600e-02 -4.233635e-03
7.468000e+00 -5.466344e-02 1.274352e-02 1.540422e-02 -4.191992e-02 1.095446e-02 -4.219885e-03
7.472000e+00 -8.261046e-02 1.248325e-02 9.848713e-03 -7.012721e-02 1.094888e-02 -4.251714e-03
7.476000e+00 -7.561848e-02 -6.130090e-03 -2.124150e-02 -8.174857e-02 1.094369e-02 -4.291910e-03
7.480000e+00 -6.362499e-02 -1.906093e-02 -3.656593e-02 -8.268592e-02 1.094056e-02 -4.280178e-03
7.484000e+00 -5.309077e-02 -7.852137e-03 -7.809894e-03 -6.094290e-02 1.094532e-02 -4.237145e-03
7.488000e+00 -5.631976e-02 1.319272e-02 2.759324e-02 -4.312704e-02 1.094571e-02 -4.214787e-03
7.492000e+00 -6.251824e-02 1.593941e-02 2.250055e-02 -4.657883e-02 1.095133e-02 -4.240896e-03
7.496000e+00 -5.948509e-02 -4.561204e-03 -4.618712e-03 -6.404629e-02 1.095162e-02 -4.277629e-03
7.500000e+00 -4.356598e-02 -2.538342e-02 -1.841746e-02 -6.894940e-02 1.094475e-02 -4.273158e-03
7.504000e+00 -3.409982e-02 -2.064085e-02 -6.137456e-03 -5.474067e-02 1.094652e-02 -4.235414e-03
7.508000e+00 -4.255554e-02 4.980478e-03 1.754290e-02 -3.757506e-02 1.094422e-02 -4.215701e-03
7.512000e+00 -4.923329e-02 2.014639e-02 6.828412e-03 -2.908691e-02 1.094797e-02 -4.246906e-03
7.516000e+00 -6.269270e-02 1.133205e-02 -1.278646e-02 -5.136064e-02 1.094388e-02 -4.283880e-03
7.520000e+00 -5.993440e-02 -7.925660e-03 -1.371023e-02 -6.786006e-02 1.094061e-02 -4.277149e-03
7.524000e+00 -4.834935e-02 -1.097191e-02 2.771982e-03 -5.932126e-02 1.093825e-02 -4.236039e-03
7.528000e+00 -4.171261e-02 6.582602e-03 1.451674e-02 -3.513001e-02 1.093724e-02 -4.211807e-03
7.532000e+00 -3.911397e-02 2.005386e-02 3.480978e-03 -1.906011e-02 1.094114e-02 -4.244790e-03
7.536000e+00 -4.948336e-02 9.499657e-03 -1.258909e-02 -3.998370e-02 1.093397e-02 -4.285082e-03
7.540000e+00 -6.179856e-02 -1.437030e-02 -1.188329e-02 -7.616886e-02 1.091893e-02 -4.278303e-03
7.544000e+00 -5.176896e-02 -2.236602e-02 5.018861e-03 -7.413499e-02 1.091489e-02 -4.238540e-03
7.548000e+00 -4.457311e-02 -5.571391e-03 1.418585e-02 -5.014450e-02 1.091008e-02 -4.216903e-03
7.552000e+00 -4.970979e-02 1.174548e-02 -8.289748e-04 -3.796432e-02 1.090676e-02 -4.246617e-03
7.556000e+00 -6.301991e-02 5.940946e-03 -1.457035e-02 -5.707897e-02 1.089964e-02 -4.286476e-03
7.560000e+00 -7.073698e-02 -1.546683e-02 -6.474269e-03 -8.620381e-02 1.089426e-02 -4.275850e-03
7.564000e+00 -6.346661e-02 -2.353778e-02 1.539567e-02 -8.700440e-02 1.088955e-02 -4.230703e-03
7.568000e+00 -5.312508e-02 -7.975822e-03 1.935286e-02 -6.110090e-02 1.088272e-02 -4.210508e-03
7.572000e+00 -6.181827e-02 1.068106e-02 -2.523159e-04 -5.113721e-02 1.087738e-02 -4.245415e-03
7.576000e+00 -8.053794e-02 9.344997e-03 -1.498147e-02 -7.119295e-02 1.087104e-02 -4.282101e-03
7.580000e+00 -9.395926e-02 -6.356770e-03 -1.223044e-02 -1.003160e-01 1.085902e-02 -4.273735e-03
7.584000e+00 -8.761490e-02 -1.010000e-02 6.457571e-03 -9.771491e-02 1.085257e-02 -4.234549e-03
7.588000e+00 -8.197175e-02 4.675952e-03 1.906697e-02 -7.729580e-02 1.085031e-02 -4.215653e-03
7.592000e+00 -8.545263e-02 1.568969e-02 3.311552e-03 -6.976294e-02 1.084849e-02 -4.249983e-03
7.596000e+00 -9.504465e-02 7.199250e-03 -2.168322e-02 -8.784540e-02 1.083642e-02 -4.290708e-03
7.600000e+00 -9.601200e-02 -8.662372e-03 -2.255251e-02 -1.046744e-01 1.083324e-02 -4.280995e-03
7.604000e+00 -8.546893e-02 -9.678019e-03 4.928554e-03 -9.514695e-02 1.083382e-02 -4.243108e-03
