8.355341e-05 0.000000e+00 6.215451e-06
7.371721e-05 2.259475e-15 9.233409e-06
6.406030e-05 9.749437e-15 5.076217e-06
5.087169e-05 1.393628e-14 1.731731e-06
5.078541e-05 1.358825e-14 7.406520e-07
6.061138e-05 1.299577e-14 -2.904771e-06
4.666295e-05 1.041953e-14 -1.501140e-05
4.107170e-05 1.721482e-15 -1.132828e-05
2.818518e-05 -9.118491e-16 -6.347989e-06
3.383312e-06 -4.488369e-15 -6.693652e-06
4.283191e-06 -1.629991e-14 -1.917568e-06
2.803860e-05 -2.428156e-14 2.970549e-06
3.072921e-05 -1.658977e-14 3.400933e-07
2.048437e-05 -5.830030e-15 1.925722e-06
4.958501e-06 7.770572e-16 -8.691581e-06
1.732794e-05 -1.628722e-17 -7.170796e-06
1.222848e-05 3.459076e-15 -1.707542e-06
1.361060e-05 -2.241962e-16 -2.130555e-06
-7.779036e-06 -4.156586e-15 3.687559e-06
-9.959392e-06 -1.561673e-14 5.877890e-06
-5.015453e-06 -2.108073e-14 8.245582e-06
-5.442762e-07 -1.853015e-14 1.112302e-05
-1.119778e-05 -1.122027e-14 -6.052825e-07
-1.491405e-06 -7.618565e-15 9.200296e-07
6.980120e-06 3.177549e-15 3.541154e-06
-7.165769e-06 1.264383e-14 -4.901713e-06
-4.037766e-06 3.303668e-15 -7.045961e-06
8.923548e-07 -4.671097e-15 -3.506154e-06
-1.153548e-06 -5.607656e-15 9.758010e-07
-1.537208e-05 -8.904483e-15 -2.277985e-06
5.123914e-06 -2.233928e-14 1.930380e-06
2.124635e-05 -9.343412e-15 4.850488e-06
-1.599635e-05 2.125579e-14 -8.267159e-06
-9.417642e-06 9.125508e-15 -9.634373e-06
-1.361891e-05 4.702090e-15 -1.348429e-05
3.197141e-07 -4.640302e-15 -8.937497e-06
-1.161081e-05 -7.213302e-15 1.236355e-06
-2.173699e-05 -2.464689e-14 -7.348159e-06
-1.568609e-05 -5.128604e-14 -6.923082e-06
-2.381882e-06 -4.898006e-14 7.699118e-06
-1.097519e-05 -2.160317e-14 -1.719193e-06
-5.233611e-06 -2.516081e-14 -1.498643e-06
-4.923952e-06 -1.489064e-14 2.270410e-06
-1.662366e-05 -1.262380e-16 -2.174444e-06
-1.522216e-05 -1.531826e-14 -1.667525e-06
-6.561942e-06 -3.832089e-14 1.116559e-05
-1.769975e-05 -3.458383e-14 -5.148498e-06
-4.741771e-06 -4.569328e-14 1.575275e-06
-2.247244e-05 -2.206586e-14 -7.051831e-07
-2.350318e-05 -3.372763e-14 1.671919e-06
-3.379850e-05 -3.563123e-14 -6.747127e-06
-3.088954e-05 -4.639221e-14 -5.614744e-06
-2.831480e-05 -5.271673e-14 -4.742010e-06
-2.274806e-05 -6.556124e-14 -6.944854e-07
-3.368215e-05 -6.059620e-14 6.380351e-07
-2.221312e-05 -6.997824e-14 4.895078e-06
-2.833733e-05 -4.909099e-14 -5.700635e-07
-2.751148e-05 -5.181540e-14 -2.245158e-06
-1.999196e-05 -4.847981e-14 -3.136498e-06
-1.892400e-05 -3.692352e-14 -6.082827e-06
-2.401887e-05 -3.372626e-14 -1.638244e-06
-4.348321e-05 -4.998866e-14 -8.973077e-06
-2.752395e-05 -9.605591e-14 -6.946900e-07
-2.196857e-05 -8.287608e-14 8.418145e-06
-2.832520e-05 -6.589516e-14 7.539909e-06
-1.443332e-05 -6.580111e-14 -1.905848e-06
-1.630187e-05 -2.700689e-14 -4.839123e-06
-2.106613e-05 -1.099617e-14 -4.839191e-08
-3.526255e-05 -1.483577e-14 -3.449368e-06
-4.052280e-05 -5.880955e-14 5.459967e-06
-3.065317e-05 -1.006996e-13 8.901987e-06
-3.696718e-05 -9.917241e-14 5.252630e-06
-2.831468e-05 -1.075971e-13 7.458115e-06
-2.613717e-05 -8.973918e-14 -2.471086e-06
-3.047219e-05 -5.667294e-14 3.517787e-06
-3.555670e-05 -3.848651e-14 6.057639e-06
-3.527570e-05 -5.228541e-14 7.676624e-07
-2.820059e-05 -8.636560e-14 1.052201e-06
-3.217840e-05 -9.550207e-14 1.446492e-06
-3.333348e-05 -1.052563e-13 9.137605e-06
-3.817312e-05 -1.122218e-13 1.472118e-06
-3.101086e-05 -1.174687e-13 2.487858e-06
-2.005374e-05 -8.075383e-14 -3.489260e-07
-3.312471e-05 -3.043453e-14 -6.114416e-06
-4.709123e-05 -3.565492e-14 -1.965561e-06
-4.833668e-05 -7.257793e-14 -5.625309e-06
-5.094342e-05 -9.934998e-14 -9.905693e-06
-3.497367e-05 -1.297411e-13 -6.692312e-06
-2.207338e-05 -1.200367e-13 -4.893755e-06
-1.410789e-05 -9.080149e-14 9.648584e-06
-2.325047e-05 -2.092999e-14 -2.292442e-06
-2.139048e-05 -8.207440e-15 8.551725e-07
-3.777552e-05 1.192151e-14 -3.681318e-06
-4.473847e-05 -3.445115e-14 -4.884880e-06
-3.857184e-05 -9.672811e-14 -4.096710e-06
-2.361952e-05 -1.282779e-13 -8.542362e-06
-2.662953e-05 -1.303862e-13 -2.411563e-06
-2.701862e-05 -1.112554e-13 1.636584e-06
-2.762656e-05 -6.700391e-14 -3.250124e-06
-2.264261e-05 -5.034900e-14 7.809618e-06
-3.302104e-05 -1.118564e-14 9.960426e-06
-3.215226e-05 -3.781032e-14 -2.251958e-06
-3.539337e-05 -8.242723e-14 3.840552e-06
-3.502324e-05 -1.132396e-13 5.514478e-06
-3.867219e-05 -1.373718e-13 4.352334e-06
-3.041642e-05 -1.513859e-13 -1.421726e-06
-2.460956e-05 -1.272439e-13 2.023219e-06
-2.547481e-05 -6.206539e-14 2.212759e-06
-4.817507e-05 -3.432902e-14 6.850518e-09
-5.775651e-05 -8.353467e-14 -9.287695e-07
-6.503287e-05 -1.232160e-13 3.434302e-07
-6.647299e-05 -1.714603e-13 3.813278e-07
-7.679335e-05 -2.225692e-13 -9.684391e-06
-6.178654e-05 -2.685895e-13 -6.882284e-06
-6.864384e-05 -2.117260e-13 -1.672956e-08
-8.189999e-05 -1.671965e-13 -5.635027e-06
-7.164802e-05 -1.781084e-13 -6.922279e-06
-6.759453e-05 -1.431377e-13 -3.271645e-06
-6.371899e-05 -1.378988e-13 -6.874013e-06
-6.132378e-05 -1.762776e-13 -3.549330e-06
-3.419050e-05 -2.098697e-13 -2.490029e-06
-2.588840e-05 -1.729005e-13 4.666769e-07
-1.673519e-05 -1.109956e-13 -4.604316e-07
-5.800341e-07 -5.360270e-14 8.453738e-06
6.417391e-06 5.943395e-14 1.103856e-05
1.762375e-05 1.421910e-13 4.578343e-06
2.584225e-05 1.969229e-13 4.756019e-06
3.710936e-05 2.318406e-13 7.245983e-06
5.468679e-05 2.549961e-13 -2.053556e-07
6.453605e-05 2.646553e-13 2.939302e-06
6.865082e-05 2.843833e-13 4.475290e-06
5.535303e-05 3.199859e-13 2.623507e-06
4.433102e-05 3.279893e-13 2.347859e-06
4.275179e-05 2.814032e-13 4.375846e-06
4.424159e-05 2.588222e-13 -3.124164e-06
5.163994e-05 1.872278e-13 2.762230e-07
4.108587e-05 1.401710e-13 -2.898004e-06
4.322983e-05 2.057469e-14 -2.265951e-06
5.875220e-05 -5.050917e-14 3.254871e-06
4.781189e-05 -2.172106e-14 -2.181611e-06
2.642010e-05 -5.995253e-14 -9.345144e-06
2.549337e-05 -1.306728e-13 -5.983303e-06
2.622481e-05 -1.461261e-13 -2.120753e-06
2.698656e-05 -1.769454e-13 -9.907211e-07
2.498013e-05 -2.018460e-13 1.914037e-07
2.482123e-05 -2.009889e-13 2.818783e-06
-1.556570e-05 -1.508983e-13 -6.885484e-06
-7.171316e-05 -2.059494e-13 -2.937077e-06
-1.026458e-04 -2.939853e-13 6.518036e-06
-1.004887e-04 -3.174811e-13 1.285214e-05
-1.293763e-04 -2.653250e-13 1.110321e-06
-2.059019e-04 -3.022046e-13 9.279409e-06
-2.843711e-04 -4.201654e-13 9.229424e-06
-3.046950e-04 -6.199881e-13 -3.991164e-06
-1.319830e-04 -7.438553e-13 -1.975764e-06
1.990461e-04 -4.854056e-13 1.379927e-05
4.264173e-04 2.870070e-13 1.232391e-05
4.712894e-04 1.107452e-12 5.361450e-06
4.731567e-04 1.596736e-12 1.172952e-05
4.339861e-04 2.021050e-12 6.895496e-06
3.730875e-04 2.287978e-12 -2.258048e-06
2.984998e-04 2.194832e-12 -5.899708e-06
1.750231e-04 2.038857e-12 1.303758e-07
4.521769e-05 1.996903e-12 -8.689165e-06
-2.163063e-05 1.569561e-12 -7.636104e-06
-2.416155e-05 9.898256e-13 3.787888e-06
-4.585185e-05 7.163729e-13 -2.043298e-06
-8.769734e-05 2.701154e-13 -6.326484e-06
-1.046894e-04 -4.524593e-13 -3.929858e-06
-8.288908e-05 -9.770034e-13 -1.547181e-05
-6.864531e-05 -1.672700e-12 -4.364091e-06
-9.415441e-05 -2.201476e-12 -4.639467e-06
-1.059832e-04 -2.664589e-12 -5.814920e-06
-8.766945e-05 -3.051839e-12 -3.429666e-06
-7.035652e-05 -3.255642e-12 1.690010e-05
-8.415330e-05 -2.796644e-12 1.110484e-05
-7.504841e-05 -2.338893e-12 6.245698e-06
-7.692896e-05 -1.821223e-12 9.460451e-07
-6.595430e-05 -1.391087e-12 2.607748e-06
-5.999258e-05 -8.440690e-13 6.594014e-06
-7.744889e-05 -1.260701e-13 2.663929e-06
-7.603911e-05 5.806917e-13 2.461485e-06
-5.897142e-05 1.319072e-12 -5.467156e-06
-4.788952e-05 1.760216e-12 2.488123e-06
-5.239457e-05 2.233100e-12 6.637214e-06
-6.020936e-05 2.615327e-12 -1.189855e-06
-4.144592e-05 2.595873e-12 6.190561e-07
-4.003642e-05 2.567331e-12 -5.135948e-06
-4.143639e-05 2.315550e-12 -7.472803e-06
-3.674341e-05 1.952736e-12 3.736506e-06
-4.508402e-05 1.741515e-12 2.559746e-06
-3.743479e-05 1.555189e-12 -7.014047e-06
-3.816127e-05 1.012423e-12 -4.203586e-06
-3.813062e-05 2.637470e-13 8.019510e-06
-3.702133e-05 -2.911944e-13 3.328115e-06
-2.756988e-05 -1.020996e-12 5.818972e-06
-3.444652e-05 -1.500838e-12 -8.157513e-06
-3.190012e-05 -2.065437e-12 -1.838945e-06
-3.098963e-05 -2.420180e-12 1.458908e-06
-1.951788e-05 -2.603634e-12 6.315410e-06
-1.416579e-05 -2.450948e-12 5.000799e-06
-9.304756e-06 -2.163570e-12 2.511598e-06
-3.180246e-05 -1.798482e-12 3.110629e-06
-3.005457e-05 -1.480387e-12 3.111513e-06
-2.328793e-05 -1.037756e-12 4.280065e-07
-2.271699e-05 -5.755834e-13 3.586063e-06
-2.558665e-05 5.514530e-14 4.612669e-06
-2.051793e-05 8.268121e-13 -4.928902e-06
-1.668412e-05 1.383821e-12 -4.578043e-06
-2.628420e-05 1.746383e-12 3.108810e-06
-2.245821e-05 2.148383e-12 1.570037e-06
-2.080496e-05 2.473584e-12 -4.991301e-06
-2.663319e-05 2.421906e-12 -4.073439e-06
-2.952014e-05 2.200887e-12 -5.931478e-06
-3.964132e-05 1.951526e-12 -1.681064e-05
-3.919541e-05 1.329664e-12 -7.606715e-06
-2.092395e-05 8.166835e-13 1.346295e-06
-1.884772e-05 5.411989e-13 -6.222867e-06
-1.678023e-05 -1.081895e-13 2.110879e-07
-1.637651e-05 -7.307741e-13 -2.117626e-06
-6.261483e-06 -1.440655e-12 6.527921e-06
-1.447928e-05 -1.791996e-12 1.684755e-06
6.117490e-07 -2.096163e-12 -1.605701e-06
1.281747e-05 -2.148294e-12 2.034081e-06
-4.871542e-06 -1.858855e-12 -4.446199e-06
-6.727708e-07 -1.775407e-12 3.527072e-06
2.624997e-05 -1.498338e-12 3.974236e-06
3.460985e-05 -1.070164e-12 4.504765e-06
1.793460e-05 -8.072898e-13 1.507819e-05
2.890140e-05 -3.630020e-13 1.592339e-05
4.327529e-05 3.819534e-13 2.864216e-06
6.037864e-05 9.842508e-13 -1.750864e-06
7.241341e-05 1.463352e-12 -3.932112e-06
8.205806e-05 1.860499e-12 6.080905e-06
9.402039e-05 2.316717e-12 8.091396e-06
9.962246e-05 2.729465e-12 4.493887e-06
1.169313e-04 2.930482e-12 3.444692e-06
1.241211e-04 3.013747e-12 -6.749546e-06
1.220339e-04 2.591331e-12 -1.011097e-06
1.152787e-04 2.106437e-12 2.676723e-06
1.177283e-04 1.772946e-12 3.905303e-06
1.114637e-04 1.639544e-12 -1.964702e-07
1.165392e-04 1.410259e-12 1.853607e-06
1.210028e-04 1.121776e-12 -2.048488e-06
1.164270e-04 6.129684e-13 -5.486167e-06
1.092124e-04 -2.375181e-14 -5.253923e-06
1.149559e-04 -7.067444e-13 -2.264743e-06
1.150299e-04 -1.242268e-12 -5.019676e-06
9.681792e-05 -1.793344e-12 3.288680e-06
9.139722e-05 -2.008108e-12 4.176740e-07
8.551982e-05 -2.054508e-12 2.527752e-06
8.661493e-05 -1.673102e-12 -3.285331e-06
7.208849e-05 -1.248785e-12 -7.319247e-06
6.984750e-05 -1.146344e-12 3.340204e-06
5.505962e-05 -9.563459e-13 3.408310e-06
5.478571e-05 -7.031611e-13 1.148679e-05
4.854405e-05 -2.331493e-13 9.217694e-06
4.110285e-05 2.596207e-13 -4.551828e-06
2.737107e-05 5.679644e-13 -3.100497e-06
3.867102e-05 8.956603e-13 -1.061065e-07
3.848553e-05 1.387136e-12 6.916962e-07
3.649115e-05 1.821332e-12 7.557005e-06
2.888586e-05 2.185863e-12 -1.530101e-06
3.041160e-05 1.993811e-12 -6.479891e-06
1.046807e-05 1.480087e-12 2.814589e-06
9.604245e-07 1.228846e-12 -3.542889e-06
4.548061e-06 9.487737e-13 -7.546224e-06
1.139331e-05 5.975172e-13 -3.215366e-06
8.680002e-06 2.708550e-13 1.195199e-06
1.902809e-06 -1.542069e-13 -2.616576e-06
2.421580e-06 -6.460120e-13 -4.212494e-06
-9.197627e-06 -1.093046e-12 -3.956047e-06
-1.095390e-05 -1.479847e-12 -7.484161e-06
1.646918e-06 -1.882329e-12 -9.758242e-06
8.946646e-06 -2.085088e-12 -1.137076e-05
-2.535188e-06 -2.183918e-12 -1.781384e-06
-2.223627e-06 -2.052322e-12 -4.332573e-06
6.646405e-06 -1.946795e-12 -1.181833e-05
-1.861154e-05 -1.916900e-12 -9.771537e-06
-1.964001e-05 -1.918361e-12 9.467322e-06
-4.742611e-06 -1.565562e-12 1.392348e-05
-1.056378e-05 -1.049103e-12 1.240209e-05
-1.187636e-05 -5.364741e-13 3.784436e-06
-1.009874e-06 -1.437966e-13 5.643854e-06
-2.078009e-05 3.931145e-13 -9.166621e-06
-2.893304e-05 7.045984e-13 -5.543468e-06
-1.755008e-05 1.196365e-12 8.235284e-07
-6.325997e-06 1.830771e-12 -2.799284e-06
-1.229677e-05 2.157928e-12 -5.285982e-06
-6.434638e-06 2.059167e-12 -3.910553e-06
-5.685148e-06 1.796465e-12 -2.705289e-06
-3.421491e-06 1.445201e-12 -3.479851e-06
-1.303057e-05 1.095289e-12 -1.281134e-05
-1.844936e-05 6.204225e-13 -7.472021e-06
-1.985435e-05 1.627491e-13 3.598662e-06
-1.570548e-05 -1.343368e-13 1.807531e-06
-7.788681e-06 -5.064006e-13 -6.896207e-06
-1.952020e-05 -9.874414e-13 -7.201218e-07
-1.663878e-05 -1.445552e-12 3.581896e-06
-6.357872e-07 -1.839232e-12 4.496858e-07
-1.357536e-05 -2.081823e-12 -1.031995e-05
-2.046870e-05 -2.363932e-12 -7.107547e-06
-2.988402e-05 -2.514067e-12 4.794575e-06
-2.518040e-05 -2.392090e-12 7.948404e-06
-1.603196e-05 -2.072515e-12 -2.946331e-07
-7.734781e-06 -1.689495e-12 -5.634494e-06
-3.133825e-05 -1.317136e-12 -4.187197e-07
-3.573537e-05 -9.798928e-13 -2.644294e-06
-3.729139e-05 -7.510147e-13 7.230494e-07
-3.504062e-05 -4.232732e-13 5.528157e-07
-2.482288e-05 -1.944399e-14 1.230501e-06
-1.607026e-05 4.303618e-13 5.165357e-06
-3.990101e-05 1.016961e-12 -7.185526e-06
-2.997443e-05 1.265847e-12 3.948649e-06
-3.824488e-05 1.774165e-12 -1.331821e-05
-3.302966e-05 1.915264e-12 -2.371571e-05
-2.270987e-05 1.556354e-12 -1.088622e-06
-1.884928e-05 1.348172e-12 -5.712095e-07
-2.199151e-05 9.696535e-13 -2.085542e-06
-1.737582e-05 4.474754e-13 -4.375616e-06
-2.863431e-05 1.091210e-13 -1.147659e-05
-4.000335e-05 -2.939679e-13 -7.846778e-06
-3.806738e-05 -8.188747e-13 3.455890e-06
-3.287365e-05 -1.210227e-12 -2.031967e-06
-2.390368e-05 -1.689851e-12 -8.893513e-07
-3.006664e-05 -2.025891e-12 6.457267e-06
-2.848610e-05 -2.132561e-12 4.084533e-06
-2.688008e-05 -2.106685e-12 1.263918e-06
-2.480591e-05 -1.985331e-12 8.881088e-06
-3.034501e-05 -1.588915e-12 3.224108e-06
-3.147453e-05 -1.251040e-12 2.521746e-06
-2.053615e-05 -9.469594e-13 6.383036e-06
-2.264160e-05 -5.504637e-13 2.367813e-06
-3.284372e-05 -1.943117e-13 7.575815e-07
-1.745631e-05 1.326030e-13 8.292622e-06
-3.316542e-05 8.078416e-13 -1.066017e-06
-3.582277e-05 1.257799e-12 5.779981e-06
-3.089517e-05 1.624049e-12 1.254953e-06
-2.674627e-05 1.769561e-12 -1.069927e-06
-2.530021e-05 1.752017e-12 3.243964e-06
-3.747495e-05 1.760163e-12 1.207101e-06
-3.037394e-05 1.591738e-12 2.514697e-06
-3.053679e-05 1.446194e-12 -7.773336e-06
-2.179516e-05 9.629879e-13 -5.396744e-06
-2.485128e-05 4.408253e-13 -6.608109e-06
-4.057437e-05 -8.568381e-14 -4.805255e-06
-4.240442e-05 -5.023366e-13 -1.783436e-08
-2.944135e-05 -7.269226e-13 -4.938051e-06
-1.627916e-05 -9.651568e-13 -4.419184e-06
-3.298789e-05 -1.346807e-12 7.310793e-06
-3.274473e-05 -1.595389e-12 5.089989e-06
-2.967899e-05 -1.819804e-12 -1.430602e-06
-3.410093e-05 -2.100036e-12 -1.159111e-06
-2.375955e-05 -2.224237e-12 -1.208457e-06
-2.417444e-05 -2.138108e-12 -2.030828e-06
-2.908375e-05 -1.917828e-12 3.952265e-06
-2.926738e-05 -1.466681e-12 -1.693211e-06
-3.214724e-05 -1.070162e-12 2.415465e-06
-3.287267e-05 -6.397593e-13 1.164411e-05
-4.283449e-05 -1.077656e-13 6.024625e-06
-4.830618e-05 3.075812e-13 1.102538e-05
-3.569377e-05 8.686856e-13 4.270513e-06
-5.165719e-05 1.230163e-12 4.508769e-06
-6.931613e-05 1.456881e-12 -3.899082e-06
-6.913445e-05 1.385864e-12 3.293245e-06
-7.953311e-05 1.443578e-12 -2.162297e-06
-7.020742e-05 1.411512e-12 -1.231185e-05
-5.741165e-05 1.126260e-12 -1.495971e-05
-5.115627e-05 6.396491e-13 -4.898098e-06
-5.425486e-05 2.371083e-13 -4.385907e-06
-5.115740e-05 -3.204441e-13 -3.292273e-06
-2.897281e-05 -9.047464e-13 -1.702482e-06
-2.583418e-05 -1.347810e-12 -3.987988e-07
-2.478070e-05 -1.722637e-12 -3.989040e-06
-1.048327e-05 -2.149106e-12 1.848398e-06
-6.807125e-07 -2.273502e-12 1.253208e-06
1.013451e-05 -2.351597e-12 -1.401034e-06
1.855364e-05 -2.505174e-12 -6.942876e-07
4.471077e-05 -2.538701e-12 -1.209415e-06
4.490832e-05 -2.289728e-12 -1.227680e-07
5.330963e-05 -1.948892e-12 6.589910e-06
5.663556e-05 -1.347332e-12 4.727312e-06
5.751691e-05 -7.422844e-13 2.959918e-06
7.004893e-05 -1.503176e-13 6.792532e-06
7.327022e-05 4.889697e-13 6.294931e-06
6.653543e-05 1.026011e-12 7.734666e-06
4.939759e-05 1.464639e-12 5.549482e-06
3.759926e-05 1.832088e-12 -1.524873e-06
3.858331e-05 2.013134e-12 1.556244e-06
3.127429e-05 2.205437e-12 -1.677760e-06
3.352254e-05 2.183788e-12 1.199166e-05
2.891049e-05 2.343515e-12 3.476004e-06
3.633641e-05 2.200746e-12 -3.337975e-06
3.361542e-05 1.841151e-12 1.373733e-05
2.489764e-05 1.808659e-12 6.285947e-06
2.935012e-05 1.541861e-12 -1.851852e-06
1.001222e-05 1.024852e-12 7.239034e-07
-3.368930e-05 5.306890e-13 6.702727e-08
-9.589070e-05 -9.809655e-14 -1.254100e-05
-8.426228e-05 -1.234321e-12 1.831170e-06
-8.120203e-05 -1.949870e-12 2.125113e-05
-1.427564e-04 -2.060256e-12 1.005009e-05
-2.050931e-04 -2.282808e-12 -4.243327e-06
-2.783298e-04 -2.550644e-12 -7.227408e-06
-2.402389e-04 -2.784521e-12 -7.616142e-06
2.960363e-05 -2.756109e-12 -4.762841e-06
2.716980e-04 -1.828757e-12 2.830526e-06
3.840172e-04 -3.976562e-13 4.860793e-06
3.688389e-04 7.809998e-13 1.054613e-06
3.700684e-04 1.291597e-12 6.157667e-06
3.524143e-04 1.803891e-12 3.155632e-06
3.323558e-04 2.328816e-12 -4.051665e-07
2.552644e-04 2.789101e-12 1.188320e-07
1.318653e-04 2.987239e-12 -3.912024e-07
3.811674e-05 2.856170e-12 -3.854554e-06
-1.028609e-05 2.574894e-12 1.877600e-07
-7.778349e-06 2.555004e-12 5.469271e-06
-6.011217e-05 2.756980e-12 -2.441017e-06
-1.051155e-04 2.420708e-12 -5.690230e-06
-1.098991e-04 1.575842e-12 -3.911475e-06
-9.616325e-05 6.537857e-13 -3.232886e-06
-8.864250e-05 -5.305422e-14 -7.138501e-06
-1.154622e-04 -8.350884e-13 -1.676530e-06
-1.245577e-04 -1.621561e-12 -2.216433e-06
-8.989513e-05 -2.361710e-12 -3.795407e-06
-8.223513e-05 -2.756925e-12 -2.434175e-06
-9.570225e-05 -2.800957e-12 -8.984082e-06
-1.091639e-04 -2.933663e-12 -7.737848e-06
-7.814072e-05 -2.983430e-12 -1.188460e-06
-7.549358e-05 -2.775109e-12 -2.781008e-06
-8.944276e-05 -2.589802e-12 -4.049288e-06
-8.937084e-05 -2.320292e-12 2.132821e-06
-6.855816e-05 -1.850936e-12 1.325472e-05
-6.507174e-05 -1.063872e-12 5.311746e-06
-6.255083e-05 -6.099812e-13 3.370147e-06
-6.375884e-05 -1.328349e-13 4.000329e-06
-5.537486e-05 5.347827e-13 -8.731041e-07
-5.772046e-05 9.659928e-13 -1.582368e-06
-5.958569e-05 1.366524e-12 -3.692808e-06
-4.854772e-05 1.718168e-12 -2.257457e-06
-5.009373e-05 2.008899e-12 -5.942277e-06
-5.357272e-05 2.033491e-12 9.484855e-07
-5.183653e-05 2.205713e-12 -2.519695e-06
-4.063002e-05 2.051753e-12 -2.919645e-06
-3.159364e-05 1.600582e-12 -4.024538e-06
-2.777676e-05 1.039860e-12 -5.758134e-06
-1.963917e-05 4.653991e-13 -8.056082e-06
-1.985787e-05 -2.559393e-13 1.457012e-05
-4.174166e-05 -1.785074e-13 7.726837e-06
-3.703649e-05 -3.756269e-13 2.816699e-07
-2.871933e-05 -9.174869e-13 4.206814e-06
-2.877536e-05 -1.338582e-12 5.108909e-06
-2.835366e-05 -1.568469e-12 -1.852885e-06
-1.991979e-05 -1.930171e-12 6.486738e-06
-2.476828e-05 -1.805402e-12 2.580225e-06
-2.036460e-05 -1.653584e-12 -7.520500e-06
-1.659697e-05 -1.648401e-12 -4.666547e-06
-1.711893e-05 -1.231676e-12 3.189039e-06
-1.991982e-05 -3.628922e-13 4.361053e-06
-2.195217e-05 3.812224e-13 4.829272e-06
-1.772545e-05 1.035147e-12 5.628540e-09
-2.766182e-05 1.298360e-12 -3.491241e-06
-2.598784e-05 1.222244e-12 -1.067345e-06
-1.696330e-05 1.211089e-12 -6.106581e-06
-4.188344e-07 1.243481e-12 -1.120002e-06
-8.298041e-06 1.515675e-12 3.995696e-06
-1.744150e-05 1.874872e-12 9.091297e-07
-1.741526e-05 2.011299e-12 -1.354005e-06
-1.392439e-05 2.012638e-12 -3.295215e-06
-1.183204e-05 1.785928e-12 -1.512481e-05
-3.449648e-06 8.944293e-13 -8.371942e-06
1.337941e-05 1.881599e-13 2.912428e-06
2.680975e-05 -5.697342e-14 4.530709e-06
1.765642e-05 -3.371474e-13 -6.449990e-07
1.757220e-05 -8.746219e-13 -6.264964e-07
2.297010e-05 -1.292470e-12 -6.262569e-06
2.085955e-05 -1.807280e-12 -8.604731e-07
2.253684e-05 -1.891283e-12 -5.282915e-07
3.504522e-05 -1.627402e-12 3.029928e-06
4.963516e-05 -1.048669e-12 -1.457119e-08
5.901506e-05 -7.381333e-13 5.858140e-06
5.180089e-05 -3.385822e-13 -3.329705e-07
5.481682e-05 -1.070431e-13 2.617955e-06
6.751560e-05 3.470753e-13 1.153197e-05
9.449900e-05 1.076609e-12 1.141454e-05
1.151438e-04 1.677189e-12 1.064920e-05
1.251189e-04 1.978386e-12 5.502193e-06
1.184124e-04 1.886685e-12 9.276876e-06
1.055726e-04 1.985186e-12 7.757148e-06
1.145585e-04 2.165698e-12 1.296006e-05
1.166075e-04 2.605915e-12 1.141205e-05
1.126164e-04 2.759096e-12 1.971298e-06
1.149948e-04 2.364583e-12 -2.330579e-06
1.242230e-04 1.900691e-12 1.153143e-05
1.189966e-04 2.112558e-12 1.192770e-05
1.125597e-04 2.300788e-12 7.111971e-06
1.028418e-04 2.205594e-12 3.259555e-06
1.017202e-04 1.820059e-12 5.106005e-06
9.872250e-05 1.497898e-12 1.547224e-06
9.444632e-05 1.281616e-12 1.009979e-05
8.551730e-05 1.634818e-12 1.068166e-05
8.210275e-05 1.775761e-12 4.350422e-06
8.464778e-05 1.469507e-12 3.107403e-06
8.093879e-05 1.210638e-12 7.294199e-06
6.408832e-05 1.317376e-12 -5.131108e-06
6.270424e-05 9.713464e-13 -2.076129e-06
5.673068e-05 9.892770e-13 -4.926578e-07
5.446745e-05 1.163561e-12 1.059085e-06
5.154917e-05 1.411315e-12 4.016953e-06
4.918270e-05 1.813145e-12 8.589264e-06
4.141544e-05 2.325905e-12 1.047363e-06
4.110169e-05 2.236752e-12 -1.377954e-06
3.125598e-05 1.984169e-12 1.794911e-06
3.311419e-05 1.958874e-12 2.742431e-06
3.688830e-05 2.142152e-12 5.051988e-06
4.247644e-05 2.516600e-12 1.528371e-05
2.886164e-05 3.212324e-12 -1.477183e-06
2.220123e-05 2.898260e-12 -1.383065e-05
2.186298e-05 2.076221e-12 -1.643044e-05
1.405909e-05 1.302753e-12 -1.174622e-05
2.091645e-05 7.060147e-13 -1.294760e-06
9.424573e-06 5.488698e-13 -5.101546e-06
3.917496e-06 6.108868e-14 -6.972484e-06
8.748263e-07 -8.976848e-13 -8.836917e-06
1.487371e-06 -2.047764e-12 -1.115804e-05
7.763520e-06 -2.915837e-12 -9.070411e-06
5.960946e-06 -3.404108e-12 -5.562792e-06
-1.639621e-06 -3.633358e-12 -7.203559e-06
-1.070098e-05 -3.854814e-12 -1.381091e-05
5.429238e-06 -4.314911e-12 -1.729618e-06
1.437282e-05 -4.141894e-12 2.307634e-07
1.751698e-05 -3.591151e-12 7.768895e-07
2.115422e-05 -2.882813e-12 -1.269009e-06
4.442689e-06 -2.307941e-12 -1.055494e-05
7.377311e-06 -2.255537e-12 -6.067740e-06
-9.514972e-06 -1.964846e-12 -1.209603e-05
-5.656679e-06 -1.912918e-12 -2.285298e-06
6.167765e-06 -1.394311e-12 7.425650e-06
1.506799e-05 -6.813676e-13 1.919749e-05
6.817266e-06 2.366447e-13 6.108664e-06
-4.326155e-06 4.676206e-13 3.874994e-06
-4.807370e-06 6.004981e-13 4.063849e-06
-9.655161e-06 7.652570e-13 -5.439475e-06
-4.250801e-06 6.501236e-13 3.554598e-06
-1.938732e-06 1.041081e-12 -3.290315e-06
7.119318e-06 1.107072e-12 -3.902036e-06
3.061143e-06 1.086750e-12 -1.518654e-06
-8.205422e-06 9.884384e-13 -2.394164e-06
-1.378693e-05 5.121544e-13 -3.375217e-06
-2.260340e-05 -1.501343e-13 -6.698431e-06
-2.328831e-05 -8.858020e-13 -8.067996e-06
-1.988695e-05 -1.592109e-12 -6.596063e-06
-1.495778e-05 -2.250652e-12 -9.006882e-06
-5.078006e-06 -3.101004e-12 -3.602979e-06
-1.891497e-05 -3.616622e-12 -6.236978e-06
-2.285233e-05 -4.033486e-12 -6.859952e-06
-2.054223e-05 -4.235110e-12 -7.279330e-06
-3.075479e-06 -4.342218e-12 -7.679732e-06
-1.186495e-05 -4.225521e-12 -2.694275e-06
-2.757733e-05 -3.843291e-12 8.174157e-06
-4.064021e-05 -2.905474e-12 6.940792e-06
-2.674365e-05 -1.967839e-12 8.295835e-07
-1.652493e-05 -1.286033e-12 -1.890436e-06
-2.904930e-05 -8.450960e-13 -1.858019e-06
-2.545340e-05 -3.578222e-13 5.489938e-06
-2.209573e-05 6.253854e-13 7.090487e-06
-2.350057e-05 1.613466e-12 9.015863e-06
-2.285218e-05 2.338499e-12 5.019127e-06
-2.493520e-05 2.586032e-12 1.619964e-06
-3.731934e-05 2.564923e-12 -5.581404e-07
-3.991397e-05 2.482263e-12 1.925875e-07
-3.565501e-05 2.524337e-12 -4.955037e-06
-3.136217e-05 2.374758e-12 -3.491279e-06
-2.261994e-05 2.040457e-12 2.892422e-06
-3.273986e-05 1.729375e-12 5.158040e-06
-3.013628e-05 1.240340e-12 4.783932e-06
-2.564887e-05 6.033301e-13 -7.750785e-06
-2.645623e-05 -5.436860e-13 -2.205837e-07
-4.006429e-05 -1.319258e-12 3.036472e-06
-4.203668e-05 -1.817359e-12 -9.359914e-06
-4.186311e-05 -2.579344e-12 -6.278284e-06
-4.729431e-05 -2.965410e-12 -4.951401e-06
-4.506011e-05 -3.214344e-12 -1.176777e-05
-3.947596e-05 -3.644706e-12 -6.961749e-06
-2.648537e-05 -3.743284e-12 -2.658676e-06
-2.479547e-05 -3.477830e-12 -2.085505e-06
-4.530892e-05 -3.012024e-12 -3.774676e-06
-4.533841e-05 -2.536911e-12 5.271740e-06
-4.205846e-05 -1.645160e-12 1.335767e-07
-3.178341e-05 -1.046249e-12 6.788329e-06
-2.933097e-05 -8.033808e-14 4.329735e-06
-2.792254e-05 8.195579e-13 -1.142322e-06
-2.135046e-05 1.315371e-12 5.590329e-06
-3.307611e-05 2.075198e-12 2.529212e-06
-3.172957e-05 2.599206e-12 -6.017250e-06
-3.387175e-05 2.711648e-12 3.971468e-06
-2.080652e-05 3.170332e-12 1.145418e-05
-3.114825e-05 3.804389e-12 -1.766347e-07
-3.148469e-05 3.489817e-12 4.559372e-06
-2.161394e-05 3.095666e-12 3.545934e-06
-2.957545e-05 2.429057e-12 -5.315966e-06
-3.354258e-05 1.143015e-12 -3.893431e-06
-3.257280e-05 -1.936404e-14 1.484892e-06
-2.264238e-05 -8.587176e-13 -2.577508e-06
-2.950493e-05 -1.886954e-12 2.484543e-06
-4.338550e-05 -2.478569e-12 -4.169880e-06
-3.630616e-05 -3.265376e-12 2.471512e-06
-4.091360e-05 -3.572573e-12 -4.562914e-06
-3.600838e-05 -3.932222e-12 -5.447577e-06
-2.557058e-05 -3.913823e-12 -5.426097e-06
-5.872954e-05 -3.787285e-12 5.940643e-07
-6.060799e-05 -3.607219e-12 4.497627e-06
-9.389182e-05 -3.161636e-12 2.031017e-06
-8.836394e-05 -2.763078e-12 3.643205e-06
-7.127527e-05 -2.126507e-12 2.944028e-06
-6.659049e-05 -1.256049e-12 -6.409697e-08
-6.887615e-05 -4.945747e-13 -3.579944e-06
-7.604098e-05 -3.586471e-14 4.988735e-06
-7.549758e-05 7.495648e-13 1.277664e-05
-7.826660e-05 1.942542e-12 2.139006e-06
-7.653794e-05 2.604467e-12 -4.151100e-06
-5.458290e-05 2.907877e-12 -4.723890e-06
-3.905087e-05 3.106192e-12 -3.937071e-06
-4.228589e-05 3.265054e-12 -1.146568e-06
-2.246877e-05 3.510602e-12 2.988227e-06
-1.008344e-05 3.777089e-12 6.416385e-06
1.160991e-06 3.713559e-12 -1.320397e-06
1.810302e-05 2.901252e-12 -5.553500e-06
3.477366e-05 1.667554e-12 4.034408e-06
3.325746e-05 7.984928e-13 5.936002e-06
5.211267e-05 2.245001e-13 -3.125125e-06
6.415403e-05 -4.490091e-13 -4.476758e-06
6.336965e-05 -1.216574e-12 -6.602157e-07
6.205242e-05 -1.906561e-12 2.683787e-06
4.392252e-05 -2.245109e-12 -4.486565e-06
3.976135e-05 -2.712400e-12 -8.386083e-06
4.557364e-05 -3.190408e-12 3.518430e-06
3.852418e-05 -3.015241e-12 8.863281e-07
4.167824e-05 -2.950797e-12 -1.500144e-06
2.888625e-05 -2.922475e-12 1.157847e-05
3.449402e-05 -2.116238e-12 1.073419e-05
2.175294e-05 -1.258225e-12 7.957025e-07
1.153830e-05 -7.903744e-13 1.057140e-06
2.852392e-05 -1.304698e-13 9.974346e-06
2.699123e-05 1.095169e-12 -1.211987e-06
1.381559e-05 1.786547e-12 -1.224058e-06
1.060118e-05 2.415372e-12 4.521447e-06
1.855367e-06 3.008973e-12 9.842629e-07
-4.907706e-05 3.180520e-12 -6.485026e-06
-9.704294e-05 2.901211e-12 -3.235146e-06
-9.575311e-05 2.627351e-12 8.504201e-06
-9.957889e-05 2.711934e-12 6.156443e-06
-1.460898e-04 2.553788e-12 3.922397e-06
-2.136484e-04 2.207103e-12 5.299279e-06
-2.869079e-04 1.800586e-12 -4.648135e-06
-2.869669e-04 8.941933e-13 -5.253511e-06
-6.294750e-05 4.909012e-14 -5.998378e-06
2.375012e-04 -2.873221e-13 -5.181113e-06
4.047668e-04 -1.744295e-13 -1.140954e-05
4.419386e-04 -3.700518e-13 -1.229151e-06
4.534636e-04 -3.157689e-13 1.119301e-05
4.115144e-04 1.265546e-13 1.122755e-05
3.428992e-04 2.790221e-13 4.768264e-06
2.478354e-04 4.006107e-14 -5.218378e-07
1.242594e-04 -4.134353e-13 -5.481059e-06
9.870886e-06 -9.408819e-13 -7.596678e-06
-3.050255e-05 -1.401320e-12 5.321025e-07
-2.935288e-05 -1.041705e-12 4.170504e-06
-4.994183e-05 -2.437105e-13 8.302040e-06
-1.070203e-04 2.613625e-13 -2.670300e-06
-1.245030e-04 1.641537e-13 1.152981e-05
-9.865906e-05 7.725336e-13 5.170855e-06
-9.077480e-05 1.226555e-12 -2.829251e-06
-1.164921e-04 1.202194e-12 -8.734161e-06
-1.182295e-04 1.009807e-12 -2.488225e-06
-9.833145e-05 1.062920e-12 -3.705573e-06
-8.319394e-05 1.013988e-12 -2.264916e-06
-8.896818e-05 7.929679e-13 -5.291348e-06
-9.245334e-05 4.407030e-13 -8.954316e-07
-8.329518e-05 2.060413e-13 -4.918037e-06
-7.608013e-05 -4.554605e-13 -8.770493e-06
-8.522131e-05 -1.159954e-12 -6.826298e-06
-9.848716e-05 -1.497077e-12 -1.016956e-05
-8.160627e-05 -1.882615e-12 -5.477010e-06
-6.365469e-05 -1.944908e-12 -3.334787e-07
-6.817856e-05 -1.575179e-12 -3.542250e-07
-6.180605e-05 -1.269238e-12 3.166914e-07
-6.410394e-05 -1.439280e-12 -4.613771e-06
-5.777398e-05 -1.904055e-12 -1.152436e-05
-5.600783e-05 -2.324794e-12 8.263954e-06
-5.546456e-05 -1.935807e-12 3.357611e-06
-5.468767e-05 -1.718839e-12 -2.873576e-06
-5.196805e-05 -1.779640e-12 -5.624907e-06
-5.363640e-05 -1.819988e-12 -8.457420e-07
-4.204629e-05 -1.405400e-12 4.023464e-06
-3.112976e-05 -6.434532e-13 1.139624e-06
-3.662419e-05 -1.214465e-14 -6.943576e-06
-4.046627e-05 1.402572e-13 -7.207768e-06
-3.510018e-05 -1.437561e-13 -8.496941e-06
-2.384128e-05 -4.715931e-13 -2.206531e-06
-3.431946e-05 -3.657924e-13 -2.605076e-06
-2.325609e-05 -3.012400e-13 2.782607e-06
-2.033477e-05 -3.025950e-13 -9.373794e-06
-1.957847e-05 -9.759484e-13 -5.926703e-06
-3.114728e-05 -1.688415e-12 -4.073976e-06
-1.632737e-05 -2.183980e-12 -6.182301e-06
-1.674393e-05 -2.579392e-12 -1.039106e-05
-1.762123e-05 -2.769024e-12 -1.439217e-06
-2.684326e-05 -2.529354e-12 -3.071837e-07
-2.888584e-05 -2.481593e-12 -6.041613e-06
-2.153083e-05 -2.778393e-12 -7.772656e-06
-1.374198e-05 -2.958965e-12 -4.174877e-07
-3.414641e-05 -2.732070e-12 2.898149e-07
-3.026865e-05 -2.818765e-12 -3.926081e-06
-2.760236e-05 -3.171929e-12 -7.627510e-06
-2.778121e-05 -3.506108e-12 -7.924422e-06
-2.296616e-05 -3.532744e-12 -6.879454e-06
-2.445000e-05 -3.233464e-12 -2.359606e-06
-2.401967e-05 -2.561180e-12 -2.608065e-06
-8.767434e-06 -1.913832e-12 2.592779e-06
-6.286768e-06 -1.401838e-12 9.316092e-07
4.441923e-06 -1.088467e-12 8.185140e-07
1.187106e-05 -6.664456e-13 7.764311e-06
1.976036e-06 -1.194801e-13 6.036266e-06
3.884035e-06 -2.278555e-14 7.102895e-07
-2.810974e-06 -2.497041e-13 -2.261783e-06
1.196884e-05 -3.489696e-13 2.383835e-06
1.253627e-05 -1.070021e-13 -3.250412e-06
2.269093e-05 -3.040289e-13 -4.943404e-06
3.951245e-05 -4.535925e-13 4.492153e-06
3.963381e-05 -2.377929e-13 3.708148e-06
4.811888e-05 -3.173910e-13 -1.262663e-06
6.888657e-05 -6.560494e-13 5.911611e-06
7.130531e-05 -5.676209e-13 8.067269e-06
8.903765e-05 -4.545365e-13 4.757127e-06
1.048897e-04 -4.588516e-13 -1.792622e-06
1.039154e-04 -6.139151e-13 -7.077293e-06
1.176527e-04 -5.917656e-13 2.307945e-06
1.277712e-04 -9.019309e-14 9.456331e-06
1.322896e-04 6.560031e-13 1.475416e-05
1.423458e-04 1.470657e-12 7.613384e-06
1.368969e-04 1.770388e-12 5.540913e-06
1.365158e-04 1.693673e-12 7.242504e-06
1.296972e-04 1.761230e-12 1.248948e-05
1.244497e-04 2.508135e-12 8.224383e-06
1.301400e-04 3.312606e-12 7.737545e-06
1.217423e-04 3.944884e-12 5.120005e-06
1.103422e-04 4.115204e-12 4.658313e-06
1.307471e-04 4.255022e-12 1.287241e-05
1.192546e-04 4.713268e-12 5.737894e-06
1.137639e-04 4.742668e-12 -6.773159e-07
1.039377e-04 4.524815e-12 -2.230406e-06
1.014014e-04 4.199946e-12 5.993576e-07
1.020212e-04 4.033471e-12 6.580355e-06
8.231141e-05 4.513511e-12 3.789118e-06
7.866853e-05 4.864585e-12 7.866518e-07
7.404187e-05 4.757510e-12 -2.615287e-06
8.867725e-05 4.160378e-12 3.819422e-06
7.879613e-05 3.872520e-12 -1.547832e-06
7.365597e-05 3.342716e-12 5.748615e-06
5.434782e-05 3.201652e-12 4.222777e-06
4.707164e-05 2.936992e-12 7.117805e-06
4.968994e-05 2.581598e-12 3.069232e-07
4.331247e-05 1.823594e-12 -5.699041e-06
3.032687e-05 1.223115e-12 -2.035016e-06
2.705929e-05 1.145835e-12 -7.353421e-07
3.173612e-05 1.177993e-12 -8.117357e-07
4.579190e-05 1.224108e-12 7.713573e-07
2.926801e-05 1.286241e-12 2.023013e-07
2.707173e-05 1.427086e-12 8.778142e-06
1.454944e-05 1.739610e-12 1.133267e-05
7.045046e-06 1.980002e-12 9.116770e-07
2.159100e-05 1.855468e-12 4.884466e-06
3.011311e-06 1.923165e-12 -6.565488e-06
-1.511597e-06 1.310673e-12 -1.159331e-05
4.767020e-06 7.088456e-13 -3.177481e-06
1.313603e-05 8.430031e-13 8.205590e-06
4.269744e-06 1.591144e-12 3.557479e-06
-5.122297e-06 1.732432e-12 -4.676653e-06
-5.096073e-06 1.152948e-12 -1.094890e-05
5.390331e-06 3.941464e-14 -7.243994e-06
1.751172e-06 -8.510717e-13 1.458861e-06
8.539693e-06 -1.085053e-12 7.813321e-07
1.725615e-05 -1.104539e-12 6.783498e-06
-8.162839e-06 -1.153505e-12 -1.582829e-06
-4.332498e-06 -1.960609e-12 -6.243154e-06
-1.301942e-06 -2.789148e-12 1.852634e-06
-4.372388e-06 -2.617946e-12 4.880729e-06
1.788729e-06 -1.747027e-12 5.683095e-06
-1.305541e-06 -1.105947e-12 2.075331e-06
-6.930705e-06 -9.354010e-13 -2.913529e-06
-4.263826e-06 -1.102730e-12 -2.795043e-06
-9.046081e-06 -1.231522e-12 -2.563956e-06
1.171637e-06 -1.134895e-12 6.326175e-07
1.143875e-05 -6.966685e-13 1.576498e-06
-3.209380e-06 -2.941422e-13 6.355807e-06
-8.392220e-06 -4.304058e-14 7.476507e-06
-5.452297e-06 7.320526e-15 8.059435e-06
-6.740609e-06 4.212046e-14 2.038450e-06
-7.792936e-06 -2.447361e-13 -1.995454e-06
3.698892e-07 -4.138925e-13 2.684109e-07
-6.649511e-06 -3.358707e-13 -6.110208e-06
-4.977172e-06 -3.956917e-13 -5.973194e-06
-2.559511e-06 -5.070030e-13 -1.969791e-06
-2.393642e-05 -3.240491e-13 -1.230661e-06
-1.528430e-05 -1.548262e-13 -1.787769e-06
-1.877103e-05 -3.168142e-13 -6.101854e-06
-6.715977e-06 -9.937466e-13 -4.014844e-07
-2.531532e-05 -1.463537e-12 -6.249516e-06
-2.247490e-05 -2.046402e-12 -4.490089e-07
-1.635802e-05 -2.135151e-12 1.732472e-06
-1.569678e-05 -2.183841e-12 3.251943e-06
-1.252239e-05 -2.240488e-12 1.877548e-06
-1.052935e-05 -2.351212e-12 -2.409030e-06
-3.230714e-05 -2.399745e-12 -4.129865e-06
-3.381478e-05 -2.291480e-12 -7.208554e-06
-1.970539e-05 -1.977504e-12 -6.253422e-07
-1.049248e-05 -1.216884e-12 9.802916e-06
-5.979259e-06 -5.399623e-14 1.293918e-05
-1.893288e-05 6.898168e-13 2.737126e-06
-2.495051e-05 6.324009e-13 5.173124e-06
-3.323332e-05 5.584940e-13 2.524536e-06
-2.940333e-05 3.732193e-13 -6.644770e-07
-2.025719e-05 2.647960e-13 -4.116382e-06
-1.990958e-05 3.267670e-13 -1.610842e-07
-3.240694e-05 5.843577e-13 -3.947547e-06
-3.153237e-05 5.717084e-13 7.934386e-07
-3.784740e-05 8.739804e-13 7.637630e-07
-3.623153e-05 1.196508e-12 2.178975e-07
-3.137824e-05 1.087942e-12 -8.819232e-06
-3.521672e-05 3.654614e-13 -3.402190e-06
-4.329915e-05 -1.690948e-14 -8.816099e-06
-3.932337e-05 -5.794340e-13 -3.282507e-06
-3.452331e-05 -9.660116e-13 -2.848718e-06
-2.633627e-05 -1.526650e-12 -4.992994e-06
-3.269185e-05 -1.965204e-12 -1.202310e-07
-2.890688e-05 -1.855822e-12 6.258729e-06
-2.512000e-05 -1.330889e-12 8.577321e-06
-3.947040e-05 -8.464829e-13 -1.903289e-06
-5.104359e-05 -1.057210e-12 -4.758379e-07
-4.227356e-05 -1.148078e-12 2.836933e-06
-4.290890e-05 -8.869715e-13 -5.402323e-07
-3.094213e-05 -4.535686e-13 -4.850284e-07
-1.653922e-05 2.058143e-13 1.188297e-06
-2.490938e-05 8.156164e-13 3.103652e-07
-2.902642e-05 1.170678e-12 1.095116e-05
-4.101233e-05 1.746842e-12 6.027883e-06
-4.006443e-05 1.880808e-12 2.887002e-06
-3.735864e-05 1.635487e-12 -1.432580e-06
-2.965732e-05 1.258645e-12 7.961452e-07
-2.328592e-05 1.173407e-12 5.423236e-07
-2.121534e-05 1.341127e-12 5.876782e-06
-3.673569e-05 1.888327e-12 -2.202260e-06
-3.624372e-05 1.901193e-12 -5.776832e-06
-3.484401e-05 1.687995e-12 -1.880031e-06
-3.367796e-05 1.515904e-12 2.495631e-06
-2.860227e-05 1.436719e-12 4.365941e-06
-1.914566e-05 1.098642e-12 -2.780152e-06
-3.187562e-05 3.977565e-13 -5.719780e-07
-3.499316e-05 -2.660896e-13 3.813031e-06
-3.732385e-05 -6.815645e-13 2.129316e-06
-3.089541e-05 -1.057417e-12 2.625624e-06
-3.616065e-05 -9.946218e-13 4.215970e-07
-4.011566e-05 -9.114825e-13 -3.028057e-06
-4.717710e-05 -9.271412e-13 -3.602199e-06
-3.697918e-05 -8.241908e-13 -3.527698e-06
-4.611963e-05 -5.008790e-13 -4.885492e-06
-6.123187e-05 -2.016711e-13 1.534237e-06
-6.461330e-05 4.403822e-13 5.563553e-06
-6.535582e-05 1.126736e-12 1.232480e-05
-7.841564e-05 1.741415e-12 -1.039111e-07
-6.975677e-05 1.449720e-12 -8.921921e-06
-6.635897e-05 6.149300e-13 -5.884509e-06
-6.831776e-05 2.555686e-13 -2.706510e-06
-7.854158e-05 3.491413e-13 -4.561968e-06
-8.458551e-05 3.971513e-13 -5.764135e-06
-8.096246e-05 2.243112e-13 -1.998948e-06
-8.142785e-05 -2.286093e-14 -1.145445e-05
-5.498707e-05 -8.707201e-13 -7.367046e-06
-3.297431e-05 -1.320410e-12 -1.335393e-05
-2.806662e-06 -1.907294e-12 -1.189434e-05
-6.732103e-06 -2.357089e-12 -2.623481e-06
1.881282e-06 -2.420066e-12 7.860973e-06
-1.947955e-06 -2.323361e-12 -1.246280e-05
2.810313e-05 -3.335609e-12 -3.398862e-06
2.010368e-05 -3.689991e-12 -3.322144e-06
3.292169e-05 -4.014775e-12 -1.875887e-06
4.586649e-05 -3.853216e-12 7.123298e-06
4.298098e-05 -3.195450e-12 -1.689163e-06
5.384563e-05 -3.045487e-12 -4.901771e-06
5.478352e-05 -3.244027e-12 -8.821702e-06
4.893764e-05 -3.483991e-12 4.814932e-07
5.985768e-05 -2.813435e-12 9.479880e-06
5.788651e-05 -1.521633e-12 1.809256e-06
4.453205e-05 -9.138511e-13 -3.233376e-06
2.266017e-05 -9.665272e-13 2.900961e-06
3.616448e-05 -1.003494e-12 4.280880e-06
3.452345e-05 -9.202042e-13 4.718414e-06
3.706702e-05 -5.138211e-13 1.200885e-05
3.251054e-05 2.726060e-13 8.317003e-06
2.011527e-05 4.161949e-13 -8.848914e-06
1.581013e-05 -2.099350e-13 -1.245847e-06
1.953108e-05 -1.060645e-14 -1.402787e-06
2.108063e-05 4.748709e-13 3.190696e-06
-5.208546e-06 1.184078e-12 -2.063743e-06
-4.877763e-05 1.282201e-12 4.447324e-06
-1.017393e-04 1.394004e-12 6.676461e-06
-1.038330e-04 1.156351e-12 6.210397e-06
-1.119247e-04 9.800438e-13 1.053646e-05
-1.742371e-04 8.767782e-13 3.921639e-06
-2.589360e-04 2.735603e-13 -1.168403e-05
-3.117591e-04 -1.106447e-12 -1.154254e-05
-2.361592e-04 -2.056301e-12 -2.029096e-06
3.846069e-05 -1.629634e-12 3.708561e-06
3.236324e-04 7.148932e-14 8.028726e-06
4.457867e-04 1.952497e-12 -3.009777e-06
4.540702e-04 2.559007e-12 -6.351544e-07
4.519511e-04 2.574125e-12 5.913102e-06
3.919696e-04 2.709988e-12 5.632025e-06
3.270952e-04 2.970095e-12 2.409368e-06
2.297893e-04 3.222798e-12 5.082115e-06
1.081570e-04 3.234633e-12 1.870492e-06
4.220634e-06 2.623874e-12 -1.690445e-06
-4.204127e-05 2.102264e-12 6.464991e-07
-5.059740e-05 2.154032e-12 2.152823e-07
-7.301335e-05 2.381239e-12 -9.443769e-07
-1.154454e-04 2.343759e-12 8.828471e-06
-1.065051e-04 2.399786e-12 3.345827e-07
-7.371241e-05 1.972607e-12 4.890259e-06
-9.085023e-05 2.047537e-12 3.555478e-06
-1.170031e-04 1.812348e-12 -1.219045e-06
-1.177239e-04 1.280633e-12 -3.774332e-06
-9.226106e-05 3.061401e-13 -6.526535e-06
-8.748015e-05 -3.437926e-13 1.750353e-06
-1.007745e-04 -1.669004e-13 2.107021e-06
-1.091585e-04 -1.704844e-13 -3.818709e-06
-7.938320e-05 -7.329585e-13 7.750376e-07
-6.929275e-05 -1.034807e-12 -5.805181e-06
-8.263563e-05 -1.214442e-12 -2.924807e-06
-8.296303e-05 -1.012687e-12 -2.256510e-06
-7.730484e-05 -7.525307e-13 -8.133349e-07
-5.724433e-05 -2.543495e-13 2.920471e-06
-5.790158e-05 -5.571353e-14 -4.752929e-06
-6.924442e-05 -4.291270e-13 -3.840024e-06
-5.039417e-05 -7.118513e-13 -4.489523e-06
-4.849977e-05 -1.093673e-12 -2.843541e-06
-5.985731e-05 -1.299894e-12 -5.681825e-06
-4.483666e-05 -1.389143e-12 2.572919e-06
-4.207914e-05 -8.932355e-13 2.576330e-06
-5.575268e-05 -5.962867e-13 1.114732e-06
-4.505577e-05 -4.236579e-13 5.255610e-06
-3.248890e-05 -1.874530e-13 -2.014770e-07
-4.058499e-05 1.092812e-13 1.594495e-06
-4.035935e-05 6.462664e-13 -2.580315e-07
-3.320858e-05 7.991702e-13 -9.091536e-06
-2.287551e-05 1.509741e-13 -8.801599e-06
-1.161128e-05 -6.428430e-13 -4.704145e-06
-1.745292e-05 -1.025854e-12 3.106967e-06
-3.006639e-05 -1.100186e-12 -8.535591e-06
-2.867372e-05 -1.763774e-12 9.735352e-07
-2.735854e-05 -1.853840e-12 -6.954509e-07
-3.407579e-05 -2.265941e-12 -4.302034e-06
-2.178378e-05 -2.752232e-12 -4.685666e-06
-1.004316e-05 -2.967578e-12 -5.644216e-06
-2.095853e-05 -3.016009e-12 -1.066021e-05
-2.023347e-05 -3.027043e-12 -1.789884e-06
-2.411778e-05 -2.434409e-12 -2.833123e-06
-1.015929e-05 -2.273849e-12 -5.420458e-06
-2.322348e-05 -2.510215e-12 -6.582511e-06
-2.186364e-05 -3.117135e-12 -2.502495e-06
-1.860352e-05 -3.349661e-12 -8.093705e-06
-2.942178e-05 -3.572195e-12 1.735045e-06
-2.072780e-05 -3.131154e-12 4.837274e-06
-1.320928e-05 -2.507946e-12 1.593721e-06
-2.942177e-05 -2.000999e-12 -3.403289e-07
-1.267431e-05 -1.704507e-12 5.758581e-07
-8.903611e-06 -1.477640e-12 2.097932e-06
-3.416644e-06 -1.096318e-12 2.392254e-06
-5.759464e-07 -7.385260e-13 9.134664e-06
3.512000e-06 4.542241e-15 -1.198783e-06
4.404025e-06 1.188765e-14 -3.369265e-06
1.561919e-05 -4.614016e-13 -9.111792e-06
1.192570e-05 -1.149394e-12 1.029860e-06
9.064930e-06 -4.990650e-13 4.487702e-06
1.132208e-05 1.238525e-13 -1.873626e-06
2.231092e-05 5.930837e-13 9.890417e-06
3.288241e-05 1.206847e-12 9.179556e-06
4.949771e-05 1.022089e-12 6.500430e-06
5.604509e-05 9.046666e-13 1.323422e-05
5.922380e-05 1.305105e-12 6.296664e-06
7.948178e-05 1.323797e-12 2.545485e-07
9.436701e-05 9.862175e-13 9.966049e-08
1.050411e-04 8.774895e-13 6.876428e-06
1.164456e-04 1.626358e-12 1.954705e-06
1.232270e-04 2.445391e-12 6.896295e-06
1.092745e-04 3.417541e-12 2.026589e-06
1.038409e-04 3.790328e-12 5.891943e-06
1.124226e-04 4.196689e-12 1.129169e-05
1.193738e-04 4.463557e-12 5.340757e-06
1.259009e-04 4.331254e-12 2.708097e-06
1.336367e-04 4.498181e-12 6.732608e-06
1.298801e-04 4.846913e-12 1.208242e-05
1.242250e-04 5.427047e-12 6.992410e-06
1.177013e-04 5.653950e-12 1.698247e-06
1.192365e-04 6.078303e-12 9.025121e-06
1.187782e-04 6.864116e-12 9.669338e-06
1.076020e-04 7.309514e-12 2.068874e-06
1.000697e-04 7.181142e-12 2.458538e-06
1.080468e-04 6.772394e-12 4.664853e-06
9.447741e-05 6.326321e-12 -1.867589e-06
8.307971e-05 5.798677e-12 -2.092921e-06
7.321995e-05 5.460763e-12 5.148966e-06
6.721520e-05 5.403746e-12 5.677974e-06
7.138438e-05 4.854774e-12 -2.717203e-06
5.011094e-05 3.487637e-12 -8.826772e-06
3.686433e-05 2.251468e-12 -4.020183e-07
4.609962e-05 1.799534e-12 -3.436241e-06
4.764150e-05 1.484833e-12 6.665740e-07
4.502631e-05 1.843915e-12 1.172015e-06
5.207980e-05 2.261304e-12 1.284235e-06
4.059794e-05 2.368120e-12 4.752220e-06
2.166972e-05 2.227559e-12 -2.911786e-06
1.771894e-05 1.705233e-12 5.148508e-08
2.563113e-05 1.305608e-12 -1.462258e-06
1.702857e-05 8.442487e-13 -1.815415e-06
1.450287e-06 2.842207e-13 -1.039294e-06
5.087102e-08 -1.868923e-13 9.001333e-06
1.319688e-06 2.605444e-13 1.038990e-05
6.302079e-06 4.378218e-13 -2.350691e-06
3.499768e-06 -1.994801e-13 -3.620172e-07
1.396640e-06 -4.306803e-13 3.986750e-06
-1.201997e-06 -3.225677e-13 9.204755e-07
-1.058173e-05 -1.951704e-13 -4.987151e-07
-4.185110e-06 -4.679833e-14 3.094628e-06
5.657025e-06 2.924847e-13 3.160891e-06
4.943945e-06 2.493586e-13 -3.525244e-06
-8.129356e-06 -5.483607e-13 -1.202688e-06
-8.883117e-06 -8.835967e-13 -9.129626e-07
-5.198762e-06 -1.293336e-12 -4.433365e-06
-1.422125e-05 -2.012930e-12 -5.417160e-06
-4.930769e-06 -2.887861e-12 -8.554787e-06
-5.777730e-06 -3.614433e-12 2.167190e-06
-6.863138e-06 -3.341237e-12 1.170484e-06
-3.752164e-06 -3.027343e-12 -4.167144e-06
3.775143e-06 -2.672248e-12 3.684944e-06
-1.021706e-05 -2.019223e-12 2.805488e-06
-2.103310e-05 -1.887372e-12 -4.372647e-06
-1.878404e-05 -2.391382e-12 -2.124878e-06
-3.245022e-05 -2.813810e-12 -7.538831e-06
-2.143673e-05 -3.331972e-12 -5.123854e-06
-1.874141e-05 -3.667635e-12 -5.894142e-06
-2.228393e-05 -3.856593e-12 -1.155257e-05
-5.847160e-06 -4.087118e-12 -1.974915e-06
-1.068168e-05 -3.347306e-12 4.390316e-06
-2.465681e-05 -2.376664e-12 -4.771753e-06
-8.397052e-06 -2.117759e-12 2.004517e-06
-1.334122e-05 -1.752389e-12 9.229677e-07
-1.255395e-05 -1.914919e-12 -2.871259e-07
-7.605279e-06 -2.137632e-12 -9.031701e-06
-9.198374e-06 -2.983088e-12 -7.194697e-06
-2.270820e-05 -3.582067e-12 -6.874389e-06
-2.784608e-05 -3.876137e-12 1.835191e-06
-2.828731e-05 -3.471632e-12 6.883800e-06
-2.495109e-05 -3.065586e-12 -7.883614e-06
-2.549277e-05 -3.461844e-12 -3.211911e-06
-2.653933e-05 -3.923579e-12 -1.385585e-06
-2.845631e-05 -4.317897e-12 -8.364815e-06
-2.403960e-05 -4.891330e-12 -8.898400e-06
-1.512904e-05 -4.983829e-12 1.742415e-06
-2.501970e-05 -4.308498e-12 7.351754e-06
-2.505240e-05 -3.442679e-12 -5.339547e-07
-2.881610e-05 -3.348863e-12 3.212793e-06
-3.344745e-05 -2.974619e-12 3.250270e-06
-3.792388e-05 -2.493796e-12 2.163485e-06
-3.759859e-05 -2.052285e-12 2.262318e-06
-2.837632e-05 -1.587319e-12 1.647617e-06
-2.061992e-05 -9.012578e-13 9.303181e-06
-3.821752e-05 7.590518e-14 5.367981e-06
-3.579252e-05 2.380004e-13 -3.431619e-06
-3.453071e-05 9.609508e-14 -8.500458e-06
-4.111022e-05 -1.227349e-13 -3.832869e-06
-3.280964e-05 -2.459935e-14 -9.486390e-06
-2.515431e-05 -2.723194e-13 -5.013270e-06
-4.431382e-05 -2.745330e-13 -8.228732e-06
-5.412146e-05 -2.040635e-13 3.486498e-06
-4.917946e-05 -8.159232e-14 -4.793460e-06
-3.199643e-05 -4.825177e-13 -2.518044e-06
-3.362373e-05 -7.626522e-13 -9.141118e-06
-3.059347e-05 -1.355787e-12 -1.415046e-07
-3.315709e-05 -1.091540e-12 -4.956613e-07
-4.088128e-05 -9.207293e-13 -8.676857e-06
-3.579262e-05 -1.028643e-12 3.946468e-06
-3.725261e-05 -6.509822e-13 5.160678e-06
-4.246204e-05 -3.645667e-13 -6.407141e-06
-4.294342e-05 -1.030297e-12 -1.310602e-05
-3.823069e-05 -1.811777e-12 -7.216555e-06
-3.860104e-05 -2.174340e-12 -1.215311e-06
-3.177087e-05 -1.937288e-12 5.623305e-06
-2.152096e-05 -8.554062e-13 1.188654e-05
-1.887178e-05 3.783606e-13 7.954718e-06
-2.635036e-05 6.883097e-13 2.529849e-07
-2.815295e-05 1.936711e-13 -2.159647e-06
-2.688302e-05 -8.967817e-14 -5.161176e-07
-2.335682e-05 3.674602e-13 5.008563e-06
-2.006519e-05 1.166592e-12 2.734821e-06
-1.494014e-05 1.540879e-12 2.288848e-06
-3.017445e-05 1.371418e-12 -1.059736e-05
-2.994165e-05 1.900935e-13 -3.696380e-06
-3.496931e-05 -2.687429e-13 -5.033158e-06
-2.673992e-05 -2.316921e-13 -1.046531e-06
-3.167552e-05 -2.685369e-14 -4.284963e-06
-3.229599e-05 -6.606146e-13 -3.476351e-06
-2.633250e-05 -1.503192e-12 -1.442884e-06
-2.552219e-05 -2.030539e-12 3.412886e-07
-3.325719e-05 -2.008928e-12 2.359257e-07
-3.222914e-05 -2.062042e-12 -2.362200e-06
-1.344682e-05 -2.219387e-12 -8.905854e-06
-6.124601e-06 -2.632397e-12 1.609474e-06
-3.639719e-05 -2.146135e-12 3.267535e-06
-2.950594e-05 -1.550326e-12 -4.510552e-07
-5.636104e-05 -7.739590e-13 6.127678e-06
-6.180540e-05 4.822767e-13 7.461964e-06
-6.532735e-05 1.191351e-12 -3.001918e-06
-6.416805e-05 1.331641e-12 5.484961e-06
-6.517169e-05 2.338912e-12 5.339405e-06
-7.399074e-05 2.899315e-12 -3.481333e-06
-5.707586e-05 2.391561e-12 3.402735e-06
-5.854229e-05 2.093322e-12 -9.216955e-07
-5.629390e-05 1.914303e-12 2.580721e-06
-6.219030e-05 1.871894e-12 -9.696862e-06
-5.305784e-05 1.183693e-12 -9.776769e-06
-1.995172e-05 1.010662e-12 5.493374e-07
-2.369502e-05 1.468001e-12 2.888331e-06
-1.250314e-05 1.633358e-12 1.910710e-06
5.965434e-06 1.317088e-12 -1.243302e-06
9.329063e-07 5.581531e-13 -7.583068e-06
1.331096e-05 -7.338303e-13 -1.906976e-06
3.331519e-05 -1.218513e-12 6.195234e-06
3.570863e-05 -8.397156e-13 2.773997e-06
4.725590e-05 -4.899274e-13 1.719874e-06
5.115910e-05 -3.802059e-13 1.387875e-06
5.969454e-05 -8.091720e-13 -7.225140e-07
6.490332e-05 -1.260522e-12 6.625568e-07
5.817689e-05 -8.778586e-13 -1.742202e-06
5.425844e-05 -5.731567e-13 -1.683669e-06
4.262337e-05 -2.315396e-13 -2.655054e-06
3.538719e-05 -2.012969e-13 -6.670778e-06
3.567996e-05 -6.245396e-13 -7.777317e-06
4.561399e-05 -7.499166e-13 3.940336e-06
4.549000e-05 1.987621e-13 1.046680e-05
2.755458e-05 1.327740e-12 4.216809e-06
2.691141e-05 1.645913e-12 1.493868e-06
1.394439e-05 1.155972e-12 -7.676935e-06
1.163952e-05 2.459553e-13 4.005395e-06
2.208938e-05 8.174841e-13 9.309459e-06
2.915528e-05 2.049659e-12 1.327831e-05
-5.714613e-06 3.168072e-12 -5.430603e-07
-4.260154e-05 2.735213e-12 4.523180e-06
-7.389408e-05 2.284491e-12 -6.285625e-06
-6.190587e-05 1.476604e-12 7.229804e-06
-5.883583e-05 2.312987e-12 2.190222e-05
-9.868739e-05 3.492263e-12 1.057030e-05
-1.960813e-04 2.852073e-12 -3.638379e-06
-2.858846e-04 7.675530e-13 -1.067508e-05
-2.366340e-04 -1.534625e-12 -1.010876e-05
2.072740e-05 -2.499209e-12 -1.052662e-05
2.604163e-04 -1.221200e-12 -2.943989e-06
3.898036e-04 1.311494e-12 7.576279e-06
3.622406e-04 3.566981e-12 1.073677e-05
3.590324e-04 4.227147e-12 -6.211711e-07
3.529362e-04 3.834702e-12 -1.068637e-06
3.401874e-04 3.500392e-12 5.409756e-07
2.734147e-04 3.604622e-12 -6.838235e-07
1.444854e-04 3.407409e-12 -2.638917e-06
2.948432e-05 2.569615e-12 -2.847206e-06
-2.234874e-05 1.441386e-12 2.926586e-06
-3.586141e-05 6.049087e-13 -3.959641e-06
-5.880363e-05 3.996916e-14 3.167554e-06
-1.069519e-04 3.707092e-13 1.578191e-07
-1.237826e-04 2.501973e-13 -4.693817e-06
-9.678544e-05 -6.726736e-13 -5.112713e-06
-8.421485e-05 -1.176997e-12 -2.218964e-06
-1.073091e-04 -1.184230e-12 -6.602073e-06
-1.051087e-04 -1.110665e-12 -2.306125e-06
-8.769992e-05 -1.006305e-12 7.504728e-06
-7.241239e-05 -3.803656e-13 -1.235587e-06
-8.848084e-05 -6.944673e-13 -1.657522e-06
-1.047305e-04 -1.126985e-12 -8.393479e-06
-8.700703e-05 -2.021386e-12 -7.228240e-06
-7.279191e-05 -2.270727e-12 -6.582688e-06
-7.175287e-05 -2.211774e-12 -1.732365e-06
-8.393032e-05 -2.730589e-12 -9.734597e-06
-7.971688e-05 -3.649327e-12 3.784825e-06
-7.940208e-05 -3.075722e-12 1.733950e-06
-6.681558e-05 -2.491001e-12 1.045033e-06
-6.362878e-05 -2.122715e-12 -6.220836e-06
-6.661668e-05 -2.736268e-12 -5.695335e-06
-6.150940e-05 -4.066485e-12 -6.650641e-06
-5.701164e-05 -5.615801e-12 -1.976466e-06
-5.121544e-05 -5.782256e-12 1.555976e-06
-4.332423e-05 -4.697440e-12 2.348397e-06
-4.232127e-05 -3.331633e-12 -5.069282e-07
-3.728261e-05 -2.554315e-12 4.162061e-06
-3.949767e-05 -2.058531e-12 8.037970e-06
-4.259907e-05 -1.803270e-12 -4.214780e-06
-3.915120e-05 -1.937972e-12 5.399072e-06
-3.895065e-05 -9.631334e-13 -5.094057e-06
-3.675671e-05 -8.790315e-13 1.518534e-06
-2.774409e-05 -5.092558e-13 4.255329e-06
-9.311937e-06 -3.559848e-13 8.584871e-07
-2.271284e-05 -5.062243e-13 -6.144444e-06
-2.173351e-05 -1.242528e-12 -3.812136e-06
-1.855355e-05 -1.995363e-12 -1.006364e-05
-1.572386e-05 -2.842479e-12 -2.007607e-06
-1.312191e-05 -2.503534e-12 4.715335e-06
-1.265651e-05 -1.610448e-12 -3.132315e-06
-2.824374e-05 -9.761144e-13 -4.740823e-06
-2.494506e-05 -1.022878e-12 -5.734006e-06
-1.320239e-05 -1.165583e-12 -2.790336e-06
-1.426317e-05 -1.038288e-12 -3.284194e-06
-1.951827e-05 -9.722227e-13 1.908768e-06
-1.606399e-05 -8.182411e-13 6.599945e-07
-2.262764e-05 -8.603812e-13 -6.103686e-06
-1.095900e-05 -1.741580e-12 -1.420592e-06
1.200176e-06 -1.674021e-12 5.740711e-06
-4.618623e-06 -6.128743e-13 4.340934e-06
-2.250711e-05 -1.045242e-13 3.149403e-07
-2.232820e-05 -2.173902e-13 -2.477079e-06
-1.422646e-07 -5.766922e-13 4.269102e-06
2.943565e-06 3.555066e-14 1.852793e-06
-3.373103e-06 9.522799e-13 1.062881e-05
1.174249e-05 1.669111e-12 -6.995567e-06
1.029226e-05 7.369654e-13 -4.517140e-06
5.276914e-06 1.682387e-13 1.257432e-05
-1.833189e-06 8.763505e-13 2.987075e-06
1.942702e-05 1.633666e-12 6.788292e-06
2.151046e-05 2.537606e-12 1.012509e-06
4.469782e-05 2.380071e-12 5.201686e-07
4.669959e-05 1.895108e-12 -2.810936e-06
2.977138e-05 1.159885e-12 -7.544030e-06
4.002745e-05 7.965085e-13 8.926668e-06
4.720304e-05 2.077258e-12 1.301894e-05
6.155154e-05 2.780923e-12 1.001711e-06
8.482982e-05 2.066647e-12 -1.348031e-08
9.141579e-05 1.058784e-12 5.464663e-06
9.412635e-05 8.681006e-13 1.139744e-06
1.130406e-04 1.222878e-12 1.834970e-06
1.094833e-04 2.330299e-12 6.625776e-06
1.047717e-04 3.111270e-12 4.349621e-06
1.129137e-04 3.313291e-12 6.400262e-06
1.180143e-04 3.931824e-12 1.111474e-05
1.203552e-04 5.314816e-12 9.358717e-06
1.242833e-04 7.187792e-12 1.438120e-05
1.293543e-04 8.823363e-12 1.359069e-05
1.168821e-04 9.195773e-12 1.499069e-07
1.116858e-04 8.139709e-12 5.943427e-06
1.091026e-04 8.038719e-12 4.609742e-06
1.001876e-04 8.152127e-12 9.577885e-06
8.867544e-05 9.061408e-12 5.162305e-06
8.160793e-05 8.867704e-12 3.169712e-06
9.594475e-05 7.832777e-12 8.170529e-06
9.861120e-05 7.539067e-12 4.933721e-06
9.540630e-05 7.576873e-12 3.240358e-07
8.406452e-05 7.440634e-12 1.020944e-06
4.305262e-05 7.159925e-12 -1.798496e-06
5.566912e-05 6.503174e-12 -7.867388e-07
6.583098e-05 5.782833e-12 -3.325796e-06
6.639275e-05 4.842541e-12 6.296788e-07
5.860650e-05 4.497671e-12 -5.855765e-07
5.352643e-05 4.330749e-12 -3.775638e-06
3.231923e-05 3.852317e-12 -1.924122e-06
3.668030e-05 3.403285e-12 4.041180e-06
3.885905e-05 3.308059e-12 -2.580007e-06
3.215786e-05 2.931268e-12 3.396275e-06
2.684122e-05 2.876075e-12 -1.770216e-06
2.326604e-05 2.106009e-12 -2.523555e-06
2.938663e-05 1.630237e-12 -2.133371e-06
1.437693e-05 1.093641e-12 -5.878862e-07
6.270209e-06 9.654144e-13 6.066775e-06
1.335429e-05 1.390371e-12 4.824239e-06
2.601544e-05 1.777554e-12 1.072120e-05
2.342735e-05 2.393729e-12 9.186345e-06
5.685056e-06 2.858172e-12 6.600198e-06
-1.185479e-05 2.514954e-12 1.142397e-07
-9.491745e-06 1.239120e-12 1.290954e-06
-1.959436e-06 5.670728e-13 -8.897680e-07
-6.420335e-07 -5.853557e-14 -7.721128e-06
3.953906e-06 -6.913219e-13 -3.641902e-06
1.308932e-05 -6.102339e-13 8.950253e-06
-1.682560e-06 2.802575e-13 2.637316e-06
6.601208e-06 -3.888654e-14 -7.685013e-07
7.257210e-06 -7.219186e-13 -6.414810e-06
2.574552e-06 -2.187436e-12 -4.005939e-06
-6.457320e-06 -3.183053e-12 -4.589068e-06
-2.359833e-06 -3.980726e-12 -1.782011e-06
-3.644815e-06 -3.815164e-12 -2.056019e-06
-2.161460e-06 -3.523147e-12 -4.880699e-06
5.155464e-06 -3.242957e-12 1.027675e-07
4.971782e-06 -2.874113e-12 -3.258484e-06
3.176966e-06 -2.649938e-12 -8.965322e-07
-4.944438e-06 -2.692175e-12 -1.403465e-05
-7.556493e-06 -3.486049e-12 -8.342886e-07
1.328801e-06 -3.390192e-12 -1.460008e-06
3.888626e-06 -3.359283e-12 9.678172e-07
-2.195285e-05 -2.582365e-12 5.985848e-06
-2.191472e-05 -1.886396e-12 7.143256e-06
-2.375617e-05 -1.167845e-12 5.615592e-06
-9.945314e-06 -1.168749e-12 5.391353e-06
-1.533044e-05 -1.608353e-12 -6.274804e-06
-1.070459e-05 -2.344785e-12 4.132005e-06
-2.089645e-05 -1.963564e-12 -2.417819e-06
-1.786390e-05 -2.065372e-12 -1.500900e-06
-6.860855e-06 -1.680272e-12 8.523839e-07
-8.919712e-06 -1.445626e-12 3.054644e-06
-1.879223e-05 -1.538985e-12 -1.753406e-06
-1.783339e-05 -2.144829e-12 -4.947847e-06
-1.965582e-05 -2.868817e-12 -4.732809e-06
-1.126259e-05 -3.364491e-12 6.149839e-07
-1.874443e-05 -3.513488e-12 -4.992804e-06
-1.604558e-05 -3.979036e-12 -3.058905e-06
-3.368783e-05 -4.245582e-12 -3.863897e-06
-3.442220e-05 -4.945584e-12 -1.604053e-05
-2.286236e-05 -6.190137e-12 -1.692604e-05
-3.047562e-05 -6.768088e-12 -1.957721e-06
-2.438227e-05 -6.187597e-12 -6.151411e-06
-2.009160e-05 -5.925415e-12 -4.284928e-06
-1.946092e-05 -5.091304e-12 8.549289e-06
-3.190870e-05 -3.622030e-12 4.348154e-06
-2.911693e-05 -3.146128e-12 4.035400e-06
-2.469728e-05 -2.698088e-12 9.014866e-06
-2.816950e-05 -1.888416e-12 1.361720e-05
-2.440262e-05 -6.935299e-13 1.432862e-06
-1.633252e-05 -7.261176e-13 9.450726e-06
-2.357589e-05 -6.151844e-13 8.533735e-06
-2.958947e-05 -1.125243e-13 -2.585970e-06
-2.935760e-05 -3.923155e-13 -8.439685e-06
-2.667138e-05 -3.958622e-13 2.341486e-06
-3.687693e-05 6.839613e-13 7.198556e-07
-3.449744e-05 1.450189e-12 -1.756687e-06
-2.319291e-05 1.770815e-12 -5.986074e-06
-1.774749e-05 8.063286e-13 -5.445301e-06
-1.694989e-05 -2.711147e-13 -3.622330e-06
-1.994812e-05 -7.676093e-13 2.159727e-06
-2.350822e-05 -4.827513e-13 5.607030e-06
-2.501775e-05 -1.619320e-13 4.346038e-06
-3.207280e-05 1.795463e-13 3.032336e-06
-3.078316e-05 1.491807e-14 -5.347954e-07
-2.459395e-05 -4.636973e-13 -3.947066e-06
-2.135719e-05 -5.594323e-13 -1.237641e-06
-1.839802e-05 3.222787e-13 5.802572e-06
-3.912292e-05 1.628824e-12 6.494345e-06
-4.610905e-05 2.294793e-12 -6.293474e-06
-4.179979e-05 1.189159e-12 -9.974766e-06
-4.151155e-05 -2.919325e-13 -9.199259e-06
-2.691081e-05 -8.851411e-13 -4.184179e-06
-2.098135e-05 -5.567679e-13 2.000681e-06
-2.898904e-05 5.882017e-13 7.013376e-06
-2.855843e-05 1.534487e-12 3.339933e-06
-1.389013e-05 2.164383e-12 8.825887e-06
-2.130647e-05 2.786129e-12 -3.988350e-06
-2.152343e-05 2.325138e-12 -1.384889e-06
-1.977837e-05 2.535535e-12 5.171320e-07
-3.656307e-05 2.894091e-12 -6.741559e-06
-3.369900e-05 2.224465e-12 -4.322289e-06
-3.507180e-05 1.604592e-12 -7.570414e-06
-2.677856e-05 6.049653e-13 -7.836749e-06
-1.842413e-05 -4.461885e-13 -1.019133e-05
-1.700897e-05 -2.141029e-12 -5.443824e-06
-3.553232e-05 -3.369113e-12 4.080995e-06
-5.624066e-05 -4.094637e-12 1.145030e-06
-4.514193e-05 -5.063965e-12 1.664295e-06
-2.245240e-05 -5.612718e-12 3.545175e-06
-3.337281e-05 -5.216872e-12 -1.658050e-06
-4.440615e-05 -5.229549e-12 -5.297086e-06
-6.150750e-05 -4.664852e-12 3.493673e-07
-6.936103e-05 -3.237567e-12 -1.439512e-06
-7.324135e-05 -1.834081e-12 -1.695392e-06
-6.596372e-05 -5.001629e-13 6.633605e-06
-7.333003e-05 9.143325e-13 3.161122e-06
-6.940738e-05 1.296574e-12 -5.888895e-07
-6.604467e-05 7.273138e-13 1.662116e-06
-6.063090e-05 3.803246e-13 4.993329e-06
-6.447666e-05 4.402030e-13 1.415006e-06
-6.121151e-05 2.264153e-13 -3.502035e-06
-4.222480e-05 -3.763565e-13 -2.699935e-06
-1.814368e-05 -3.528983e-13 3.373652e-06
-1.649708e-05 3.186371e-13 4.475533e-07
-1.987228e-06 4.658988e-13 -5.079690e-06
7.428789e-06 -6.180700e-14 -3.452695e-06
1.987185e-05 -2.782521e-13 -5.315733e-06
3.155592e-05 -8.898745e-13 -1.044851e-05
3.858803e-05 -1.615309e-12 -6.616287e-06
3.290367e-05 -1.974934e-12 -1.453503e-06
4.641528e-05 -1.970352e-12 9.165173e-07
5.816042e-05 -2.214596e-12 -8.842304e-06
5.540061e-05 -3.041358e-12 -3.387105e-06
5.375821e-05 -3.248884e-12 -5.190363e-06
3.196934e-05 -3.548377e-12 -2.543955e-06
3.206935e-05 -3.347923e-12 2.410473e-06
3.802720e-05 -2.723760e-12 1.533869e-06
4.062486e-05 -2.006917e-12 -1.819178e-06
3.563036e-05 -1.939759e-12 -2.504972e-06
4.316956e-05 -1.776394e-12 -4.271694e-06
2.988274e-05 -1.360880e-12 3.352817e-06
3.389180e-05 -4.901733e-13 2.474571e-06
2.269424e-05 -1.587133e-13 -1.132160e-06
1.681121e-05 -5.122186e-13 -1.090685e-06
5.601141e-06 -1.141356e-12 -3.601031e-06
2.870574e-06 -1.479775e-12 4.339606e-06
1.169336e-06 -9.852786e-13 9.257585e-06
-3.607159e-05 2.770426e-13 6.387551e-06
-6.855642e-05 9.160164e-13 8.182991e-06
-1.031109e-04 8.507900e-13 -2.133655e-06
-9.740635e-05 3.025157e-13 1.940563e-05
-1.415679e-04 1.760859e-12 9.962219e-06
-2.260441e-04 2.071963e-12 -3.274973e-06
-2.883339e-04 9.056910e-13 -8.082327e-06
-2.865948e-04 -1.056988e-12 -1.315232e-05
-6.772607e-05 -3.075955e-12 -1.101856e-05
2.326451e-04 -3.314434e-12 1.047035e-06
4.119523e-04 -1.140959e-12 1.603943e-06
4.406190e-04 1.052309e-12 1.304378e-07
4.354704e-04 1.719176e-12 -3.967927e-06
4.009654e-04 1.078006e-12 -2.238800e-06
3.387764e-04 1.134886e-12 -3.874068e-06
2.700735e-04 1.917540e-12 9.576343e-06
1.537706e-04 3.856016e-12 -8.176643e-06
3.643872e-05 3.348662e-12 -8.373833e-06
-2.961110e-05 2.049927e-12 -1.104942e-06
-3.502321e-05 1.248979e-12 -6.569470e-07
-5.882846e-05 1.142885e-12 -3.976968e-06
-9.073425e-05 1.307512e-12 -4.026410e-06
-1.102056e-04 9.689144e-13 1.519554e-06
-1.066256e-04 4.587138e-13 -3.939731e-06
-9.786197e-05 -7.424241e-13 -3.412409e-06
-1.143132e-04 -1.439736e-12 2.553340e-06
-1.220467e-04 -1.395183e-12 -5.387144e-06
-9.860371e-05 -2.069116e-12 -1.258762e-05
-7.582480e-05 -3.119865e-12 -2.535673e-07
-8.636461e-05 -2.519816e-12 5.622528e-06
-9.532701e-05 -1.380017e-12 4.108718e-06
-8.239302e-05 -8.231688e-13 -3.656168e-06
-7.251096e-05 -1.517425e-12 -6.900671e-06
-7.481079e-05 -2.931517e-12 -3.009297e-06
-8.745767e-05 -3.748673e-12 1.315770e-07
-8.498509e-05 -3.580570e-12 2.713249e-06
-6.846090e-05 -2.639029e-12 4.276852e-06
-6.801006e-05 -1.895198e-12 -2.085724e-07
-6.986749e-05 -2.459941e-12 -4.699828e-06
-5.406927e-05 -3.613422e-12 -1.228316e-06
-4.984529e-05 -3.947298e-12 -5.950520e-06
-5.116859e-05 -3.966937e-12 -1.200437e-05
-5.500834e-05 -4.270439e-12 -8.990371e-06
-5.285811e-05 -4.066542e-12 3.341105e-06
-4.691874e-05 -2.688139e-12 3.743039e-06
-4.393756e-05 -1.530922e-12 -1.372395e-06
-2.617923e-05 -1.153445e-12 6.685934e-06
-4.076587e-05 -3.637980e-13 6.435681e-06
-4.352309e-05 -4.010379e-13 3.879869e-06
-3.841648e-05 -6.361754e-13 4.420478e-06
-4.551081e-05 -4.958388e-13 -1.080258e-06
-2.796643e-05 -5.206098e-13 5.712138e-06
-2.180375e-05 2.184147e-13 8.871232e-06
-3.143440e-05 9.017660e-13 9.438585e-07
-2.514299e-05 9.644588e-13 3.179017e-06
-1.784156e-05 1.449999e-12 6.994734e-06
-2.586790e-05 2.226315e-12 -2.456029e-06
-3.444603e-05 2.023748e-12 -6.041442e-06
-3.615353e-05 1.357791e-12 -4.702493e-06
-3.591966e-05 8.775211e-13 -1.587581e-06
-3.150632e-05 9.919767e-13 -1.817510e-06
-1.506817e-05 1.491844e-12 4.536738e-06
-2.286623e-05 2.780873e-12 5.130416e-06
-2.230062e-05 3.415851e-12 -8.886266e-06
-3.788190e-05 2.211860e-12 -1.395196e-05
-2.716247e-05 7.502026e-13 -7.165311e-06
-1.570277e-05 5.789056e-13 1.926105e-06
-2.592721e-05 1.574965e-12 1.105791e-05
-2.327814e-05 3.257503e-12 7.534620e-07
-2.268778e-05 2.921426e-12 -4.983206e-06
-1.418296e-05 1.393464e-12 7.156055e-07
-6.751299e-06 7.022239e-13 5.574022e-06
-6.669645e-06 1.167761e-12 5.765756e-06
-8.526130e-06 1.550743e-12 4.300863e-06
-1.645552e-05 1.010682e-12 2.658934e-06
5.306065e-06 -5.222268e-13 -6.028915e-06
1.230145e-05 -2.212592e-12 -8.267761e-07
5.663567e-06 -1.888143e-12 5.233239e-06
8.068425e-06 -1.855471e-13 2.070836e-06
5.443575e-06 8.812588e-13 -9.189649e-06
2.654324e-05 4.091838e-13 -3.317058e-06
3.891035e-05 4.063427e-13 1.467202e-06
4.510118e-05 1.008176e-12 -9.274565e-08
4.530498e-05 1.502798e-12 -2.087126e-06
5.537904e-05 1.612555e-12 7.971432e-07
6.151372e-05 1.019038e-12 -2.201825e-06
6.917766e-05 -2.401194e-13 1.406118e-06
7.031005e-05 -6.029749e-13 5.387356e-06
7.452115e-05 -4.148472e-13 -3.044275e-06
1.001638e-04 -1.090668e-12 -1.860480e-06
1.161247e-04 -1.622556e-12 2.547085e-06
1.193876e-04 -1.566877e-12 -4.820485e-06
1.315741e-04 -1.715272e-12 -1.606273e-06
1.326297e-04 -8.024818e-13 3.485088e-06
1.115694e-04 6.786848e-13 6.791869e-07
1.264992e-04 1.543152e-12 8.270665e-06
1.262530e-04 2.747706e-12 9.810514e-06
1.285458e-04 3.734074e-12 7.141752e-06
1.172258e-04 3.979895e-12 5.886451e-06
1.099126e-04 3.958239e-12 3.923781e-06
1.174146e-04 3.829957e-12 2.192964e-06
1.136116e-04 3.597374e-12 3.524861e-06
9.683565e-05 3.592270e-12 -4.698140e-06
1.024606e-04 2.491557e-12 -3.644976e-07
9.824472e-05 2.672471e-12 1.726419e-05
8.900560e-05 4.962539e-12 1.472721e-05
8.711823e-05 6.453376e-12 -2.921971e-06
8.636545e-05 5.703466e-12 6.370638e-07
7.240649e-05 4.842232e-12 4.558905e-06
7.355210e-05 3.899163e-12 3.528250e-06
5.513839e-05 3.126490e-12 -2.031750e-06
5.709604e-05 2.549167e-12 5.223629e-06
4.598501e-05 3.143139e-12 -1.652563e-06
4.935393e-05 2.916398e-12 3.699008e-06
4.464116e-05 3.460561e-12 6.078205e-06
4.916429e-05 4.324393e-12 1.089926e-05
4.816214e-05 5.930112e-12 8.238540e-06
3.495531e-05 6.382344e-12 -5.183005e-07
1.828873e-05 5.442623e-12 3.583619e-07
1.980876e-05 4.814311e-12 8.251926e-06
1.118269e-05 5.251929e-12 -3.084145e-07
1.209685e-05 4.812158e-12 -1.211769e-05
3.596596e-05 3.462985e-12 -1.107770e-05
2.205247e-05 2.974231e-12 1.693440e-05
1.109619e-05 5.229142e-12 1.277257e-05
7.225686e-06 6.481338e-12 5.804099e-06
3.339255e-06 6.737017e-12 7.743050e-06
3.223588e-07 6.482932e-12 1.332613e-05
5.699220e-07 6.009029e-12 9.104049e-06
3.124989e-06 5.589584e-12 6.916705e-06
-1.254534e-05 5.663898e-12 -1.689618e-06
-7.401446e-06 4.787131e-12 -2.986374e-06
5.670761e-06 3.469487e-12 -1.110491e-05
-3.601221e-06 1.647277e-12 -1.107664e-05
-5.053540e-06 6.296465e-13 7.650153e-07
-7.897670e-07 1.249110e-12 -3.660224e-06
6.852852e-06 1.276420e-12 -1.102780e-05
5.355334e-06 1.773133e-13 -1.222075e-05
5.115348e-06 -1.297752e-12 -3.342218e-06
-1.283788e-05 -1.717450e-12 -8.044665e-06
-1.180862e-05 -1.935012e-12 1.498538e-06
-1.100012e-05 -1.160946e-12 -9.561957e-06
3.249730e-06 -2.062235e-12 1.203090e-06
-4.097111e-06 -2.232959e-12 3.662555e-06
-1.836048e-05 -2.126214e-12 -2.458634e-06
-1.837597e-05 -2.113891e-12 8.750202e-07
-7.513821e-06 -1.887497e-12 1.349506e-05
-9.580007e-06 -9.503734e-13 9.434452e-06
-5.543969e-06 -1.039863e-12 -2.385959e-06
-6.870568e-06 -2.091879e-12 5.276004e-06
-1.662512e-05 -2.243791e-12 -3.865638e-06
-1.623364e-05 -3.013630e-12 1.541103e-06
-1.620908e-05 -2.747325e-12 9.302181e-06
-4.152186e-06 -1.608944e-12 1.235149e-05
-3.824089e-06 -8.609783e-13 3.505779e-06
-7.444393e-06 -1.339150e-12 -2.952244e-06
-3.812778e-06 -2.266665e-12 -1.407554e-05
-2.370675e-06 -3.550533e-12 1.289930e-06
-1.177979e-05 -2.617906e-12 2.483519e-07
-6.689849e-06 -1.563953e-12 4.529282e-06
-2.094675e-05 -4.011094e-13 -8.951751e-06
-1.929968e-05 -1.498655e-12 -1.037122e-05
-1.926991e-05 -2.787619e-12 -1.235283e-05
-3.108335e-05 -3.412976e-12 -7.625136e-06
-2.175782e-05 -2.832721e-12 -1.293683e-06
-9.377185e-06 -2.109511e-12 -6.169241e-06
-2.367446e-05 -2.896348e-12 -6.639479e-06
-2.333298e-05 -4.668394e-12 -1.047131e-05
-4.561204e-06 -6.368842e-12 -1.527304e-05
-1.309092e-05 -7.576233e-12 -6.903846e-06
-4.352682e-05 -7.224755e-12 -2.326435e-06
-3.183163e-05 -6.630979e-12 -3.468630e-06
-4.016122e-05 -6.446915e-12 -3.858043e-06
-4.166382e-05 -6.672279e-12 -3.381945e-06
-2.794221e-05 -6.335988e-12 5.381599e-06
-2.481124e-05 -4.602213e-12 6.445540e-06
-3.405880e-05 -3.282047e-12 6.747246e-06
-2.795152e-05 -3.235815e-12 5.149192e-06
-2.295782e-05 -3.938557e-12 1.069084e-06
-2.730315e-05 -4.743432e-12 3.244778e-06
-1.934227e-05 -4.645906e-12 6.602221e-06
-3.580472e-05 -3.817891e-12 3.845019e-06
-4.260231e-05 -3.499771e-12 -1.952451e-07
-4.065583e-05 -4.164832e-12 -2.477170e-06
-3.626855e-05 -5.257534e-12 -4.315906e-06
-3.757454e-05 -5.799142e-12 -6.355336e-06
-3.466360e-05 -5.697057e-12 -8.230805e-06
-2.867163e-05 -5.438711e-12 -1.157111e-05
-2.126704e-05 -5.730258e-12 -7.963510e-06
-3.238698e-05 -6.217127e-12 -1.051777e-05
-3.779098e-05 -6.910518e-12 -3.519935e-06
-2.970647e-05 -5.665857e-12 6.200453e-06
-2.977970e-05 -3.237087e-12 2.965078e-07
-3.208219e-05 -2.123495e-12 -9.363382e-07
-2.774091e-05 -2.086654e-12 -5.213172e-06
-4.917608e-05 -3.035664e-12 -1.091775e-05
-4.698059e-05 -4.335302e-12 -5.437760e-06
-4.470178e-05 -3.836868e-12 1.797698e-06
-3.415061e-05 -2.005920e-12 8.419575e-06
-3.342930e-05 -1.729379e-14 6.585095e-06
-4.212512e-05 3.162780e-13 -8.971705e-07
-4.760603e-05 -4.778591e-13 5.637304e-06
-3.367369e-05 -1.871844e-13 1.891510e-06
-2.793812e-05 -1.308356e-13 -4.217588e-07
-3.261962e-05 -3.910370e-13 -1.002469e-06
-2.836644e-05 -2.771636e-13 5.852870e-06
-3.335590e-05 8.019074e-13 6.508815e-06
-2.960098e-05 1.655227e-12 3.492338e-06
-3.019823e-05 2.185609e-12 -3.899072e-06
-2.702675e-05 1.982189e-12 -3.753739e-06
-2.726517e-05 1.839208e-12 -6.612971e-06
-1.727394e-05 9.356360e-13 -9.278015e-06
-2.190094e-05 3.483996e-14 -1.044832e-06
-3.454443e-05 3.948762e-14 9.834179e-06
-2.840797e-05 8.205667e-13 3.438581e-06
-3.418068e-05 3.955737e-13 -2.133753e-06
-2.691505e-05 -3.792100e-13 -1.587803e-06
-2.704974e-05 -9.219898e-13 -5.109724e-06
-2.658882e-05 -1.676612e-12 -6.502371e-06
-2.944296e-05 -2.135393e-12 -1.714867e-06
-4.938843e-05 -1.085897e-12 -5.386718e-06
-4.318956e-05 -4.141496e-14 -4.306008e-06
-5.144189e-05 1.123812e-12 4.324141e-06
-7.833828e-05 2.316191e-12 1.619194e-06
-6.155473e-05 3.055742e-12 1.090207e-05
-6.017290e-05 4.341702e-12 3.270333e-06
-6.281651e-05 4.046635e-12 1.526168e-06
-6.778214e-05 3.094391e-12 2.218421e-06
-7.738897e-05 2.241994e-12 3.341290e-07
-7.682523e-05 1.332033e-12 -3.282708e-06
-6.800190e-05 6.243324e-13 2.541172e-06
-5.298947e-05 8.521235e-13 -2.696789e-06
-2.729538e-05 6.233552e-13 -1.157612e-06
-1.801029e-05 6.312410e-13 -2.563604e-06
-8.984409e-06 1.613425e-13 -6.669440e-06
1.543788e-05 -3.302016e-13 8.498789e-06
8.971728e-06 9.109580e-13 1.401404e-06
1.437851e-05 9.920197e-13 5.476553e-06
1.331779e-05 9.913485e-13 -9.155912e-07
2.987310e-05 4.924624e-13 -1.532414e-06
6.451216e-05 1.571764e-13 -1.831485e-07
8.556710e-05 7.602195e-13 5.464929e-06
7.703657e-05 1.945827e-12 8.112084e-06
5.275369e-05 3.074972e-12 -2.776808e-06
4.757354e-05 2.693430e-12 9.346081e-07
6.734817e-05 2.838143e-12 6.965233e-06
8.978391e-05 3.833409e-12 3.767795e-06
6.209711e-05 4.821457e-12 -1.072541e-07
4.143269e-05 5.197591e-12 -3.144490e-06
2.671602e-05 4.536324e-12 2.311828e-06
2.473592e-05 4.240687e-12 -8.447894e-06
3.502213e-05 2.998067e-12 1.885283e-06
3.030152e-05 3.460897e-12 9.786789e-06
2.832283e-05 4.737087e-12 1.833269e-05
1.704529e-05 6.260955e-12 6.109576e-06
3.706190e-05 5.467498e-12 -4.577199e-06
3.592051e-05 3.498757e-12 -3.510867e-06
1.783243e-05 1.926643e-12 -4.168744e-06
-2.349967e-05 1.328779e-12 -4.452511e-06
-5.610535e-05 1.377023e-12 1.048228e-05
-8.184302e-05 3.069817e-12 4.810255e-06
-8.854813e-05 3.255298e-12 1.027368e-05
-1.166205e-04 3.636468e-12 1.112702e-05
-1.779891e-04 3.711357e-12 1.025413e-05
-2.422410e-04 3.378817e-12 1.846370e-06
-2.947421e-04 1.716218e-12 -1.762965e-05
-1.736689e-04 -1.619251e-12 -1.531450e-05
1.263064e-04 -2.725078e-12 -1.980192e-07
3.736018e-04 1.764841e-13 1.662321e-07
4.580121e-04 3.784671e-12 2.625332e-06
4.672443e-04 6.848938e-12 7.773418e-06
4.422562e-04 8.521456e-12 7.774604e-06
3.888834e-04 8.415801e-12 1.025256e-05
3.052654e-04 7.987076e-12 1.639043e-06
1.967010e-04 6.476515e-12 -1.643762e-06
6.889008e-05 4.943759e-12 5.870330e-06
-2.138295e-05 4.224361e-12 5.005864e-06
-3.796434e-05 3.506956e-12 7.088312e-07
-3.316201e-05 2.776659e-12 1.317340e-06
-7.282157e-05 2.391408e-12 2.089363e-06
-1.223972e-04 2.010196e-12 2.262941e-06
-9.441441e-05 1.676763e-12 3.243995e-06
-6.440222e-05 1.386972e-12 8.012032e-06
-9.107772e-05 1.570166e-12 1.694109e-06
-1.033296e-04 9.100446e-13 2.316847e-07
-9.575612e-05 4.172723e-13 -1.869488e-06
-8.496385e-05 3.444935e-14 -3.879913e-06
-7.735189e-05 -1.405108e-13 -9.473501e-06
-1.029404e-04 -7.110739e-13 -3.370201e-06
-1.042236e-04 -2.539347e-13 -2.229619e-06
-7.582625e-05 1.331823e-13 -1.378978e-07
-6.359461e-05 7.845538e-13 1.978678e-06
-7.478827e-05 1.520345e-12 -3.802983e-06
-8.065243e-05 1.193432e-12 -5.854656e-06
-6.368510e-05 6.415353e-13 -2.805528e-06
-5.918077e-05 6.374112e-13 -1.972808e-06
-5.923410e-05 2.358098e-13 -1.009848e-05
-6.205068e-05 -1.391905e-12 -5.078731e-06
-6.518883e-05 -2.459463e-12 -5.405781e-06
-5.163175e-05 -3.324832e-12 -3.591094e-06
-3.402187e-05 -3.434502e-12 -1.069074e-07
-5.049873e-05 -3.252646e-12 2.789106e-06
-5.344201e-05 -2.999117e-12 2.244284e-06
-4.716966e-05 -3.074042e-12 8.915284e-06
-4.746092e-05 -2.515513e-12 6.049017e-06
-2.827026e-05 -2.516603e-12 5.512164e-06
-2.574251e-05 -2.368549e-12 4.860017e-06
-2.985685e-05 -2.206965e-12 8.610884e-06
-2.991363e-05 -1.574601e-12 -4.692782e-06
-3.411788e-05 -2.485183e-12 5.511630e-06
-2.745901e-05 -1.827495e-12 4.593999e-06
-2.035039e-05 -1.340968e-12 1.234843e-05
-4.132511e-05 -7.327391e-13 -1.013668e-05
-3.100980e-05 -3.432861e-12 -1.790584e-05
-4.277792e-05 -5.943114e-12 -2.233201e-05
-2.844021e-05 -7.434403e-12 -1.001685e-05
-2.573646e-05 -5.862411e-12 -7.210111e-06
-2.408385e-05 -3.497388e-12 -1.236327e-06
-2.327149e-05 -1.447741e-12 -8.483909e-06
-2.796054e-05 -2.148574e-12 -6.845727e-06
-4.065822e-05 -3.193473e-12 -1.512938e-07
-2.586335e-05 -3.395408e-12 4.267527e-06
-3.880674e-05 -3.062835e-12 -9.371035e-06
-3.786598e-05 -4.684005e-12 -1.549872e-05
-3.935067e-05 -7.391261e-12 -1.328435e-05
-2.655710e-05 -9.354587e-12 -1.247133e-05
-2.160832e-05 -1.007184e-11 -7.814991e-06
-1.968024e-05 -9.205244e-12 4.023154e-07
-2.106384e-05 -7.211711e-12 4.464724e-06
-8.552078e-06 -5.800765e-12 2.602276e-06
-1.686756e-05 -5.868959e-12 3.417662e-06
-3.270531e-05 -6.158039e-12 3.227156e-06
-3.307825e-05 -6.514380e-12 1.898874e-06
-2.061229e-05 -6.931205e-12 -9.232418e-07
-5.817381e-06 -7.535760e-12 5.171273e-06
1.076683e-05 -7.433801e-12 -3.393654e-06
4.803855e-07 -7.441472e-12 5.790725e-06
-7.453057e-06 -5.591529e-12 -7.322635e-08
2.697220e-06 -4.004693e-12 9.741318e-07
5.604206e-06 -2.333352e-12 6.672538e-06
1.827542e-05 -1.183956e-12 -2.782597e-06
3.149433e-05 -2.199019e-12 3.765035e-07
4.913313e-05 -3.010512e-12 3.452118e-06
5.310145e-05 -2.620291e-12 5.098869e-06
6.589957e-05 -2.119127e-12 3.300804e-06
8.264535e-05 -1.697383e-12 2.704643e-06
1.114894e-04 -1.069378e-12 1.165501e-05
1.045490e-04 8.083186e-13 7.592933e-06
1.029903e-04 1.954675e-12 7.090745e-06
1.093042e-04 3.310725e-12 1.628616e-06
1.109485e-04 4.495193e-12 8.654279e-07
1.050204e-04 5.396757e-12 -1.157252e-07
1.194043e-04 6.020617e-12 9.318214e-07
1.200226e-04 7.117118e-12 4.586837e-06
1.156802e-04 8.826649e-12 3.126105e-06
1.143137e-04 9.896419e-12 1.381271e-06
1.188963e-04 1.005516e-11 4.266900e-06
1.051983e-04 9.994102e-12 6.867036e-06
9.852960e-05 9.572286e-12 1.673749e-06
1.055531e-04 7.951320e-12 3.424924e-06
1.062896e-04 7.112877e-12 7.050375e-06
1.027014e-04 6.810529e-12 8.033376e-06
7.482357e-05 6.926598e-12 2.715479e-06
7.802603e-05 6.490449e-12 -3.722427e-06
9.180302e-05 6.003886e-12 -2.430690e-06
9.059495e-05 6.566146e-12 1.797849e-06
8.463398e-05 7.471305e-12 -4.957955e-06
8.213538e-05 7.041163e-12 7.390238e-06
5.233378e-05 7.926115e-12 -5.193665e-06
5.010958e-05 6.450922e-12 -3.399865e-06
5.612289e-05 5.230497e-12 4.863436e-06
3.338205e-05 5.021297e-12 -4.371238e-06
2.537196e-05 4.300091e-12 -2.785684e-06
3.100867e-05 4.293029e-12 -4.687365e-06
3.190824e-05 4.287106e-12 1.125696e-06
3.078417e-05 4.565288e-12 2.335996e-06
1.623897e-05 5.034174e-12 2.539277e-06
5.455434e-06 5.001604e-12 -4.113391e-06
6.530934e-06 3.849613e-12 -5.250201e-06
1.991512e-05 2.624098e-12 5.700972e-06
3.240959e-05 3.014311e-12 1.770701e-05
2.846919e-05 4.500205e-12 1.438311e-05
2.608088e-06 4.392872e-12 -1.877004e-06
-6.281443e-07 1.560799e-12 -4.976117e-06
-4.076921e-06 -1.336947e-12 -3.294359e-07
-6.304519e-06 -2.182525e-12 6.939987e-06
3.907057e-07 -8.362544e-13 3.392400e-06
-1.054095e-05 4.596109e-13 2.756597e-07
-5.644291e-06 6.329844e-13 5.493292e-06
-6.134026e-06 7.546228e-13 -7.119834e-07
1.383201e-06 -1.087710e-13 -4.360876e-08
-5.783708e-06 -3.148266e-13 -2.977068e-06
-1.533094e-05 -3.374977e-13 6.367517e-07
-2.127731e-05 1.697163e-14 -5.566417e-07
-6.701195e-06 -1.239422e-13 7.670874e-07
-2.073873e-05 3.996338e-13 -8.224096e-07
-2.225877e-05 1.321801e-12 -2.063433e-06
-1.132435e-05 2.393328e-12 1.501410e-06
-1.409880e-05 3.847605e-12 1.468076e-06
-1.387622e-05 4.958270e-12 4.011039e-06
-1.163568e-05 5.409870e-12 1.997714e-06
4.691102e-06 4.981674e-12 -1.173845e-06
7.721865e-06 4.001925e-12 -4.395855e-06
-7.295553e-06 2.878991e-12 -1.154542e-07
-1.276327e-06 2.510516e-12 4.675441e-06
-7.623751e-06 2.481025e-12 -1.710817e-08
-1.449527e-05 1.449699e-12 3.882211e-06
-2.306237e-05 8.035220e-13 2.638444e-06
-5.173031e-06 4.342876e-13 3.676919e-07
-4.100666e-06 -3.397978e-13 3.084190e-06
-1.347528e-05 -9.268972e-13 2.911747e-06
-1.347977e-05 -1.808149e-12 5.086824e-06
-2.222434e-05 -1.532225e-12 6.571148e-07
-1.937217e-05 -1.370308e-12 -2.221612e-06
-2.765784e-05 -1.285237e-12 -5.420105e-06
-3.148136e-05 -2.316847e-12 -1.564840e-05
-1.955553e-05 -4.679998e-12 -1.293745e-05
-1.988980e-05 -6.655136e-12 -1.894870e-05
-1.326880e-05 -8.486183e-12 -1.044644e-05
-1.392745e-05 -8.846897e-12 -5.072889e-06
-1.663352e-05 -8.687472e-12 -6.325476e-06
-2.055370e-05 -8.904434e-12 -2.450680e-06
-1.632125e-05 -8.482110e-12 -4.322413e-06
-1.198235e-05 -8.644773e-12 -8.658033e-06
-1.853957e-05 -9.335626e-12 -2.979916e-07
-3.116501e-05 -8.927649e-12 -1.060068e-05
-3.013040e-05 -9.502840e-12 -2.123302e-06
-3.422572e-05 -9.220276e-12 -5.601970e-06
-1.282578e-05 -9.560615e-12 -7.710693e-06
-1.304767e-05 -9.954474e-12 -5.191330e-06
-2.798013e-05 -9.827226e-12 2.712989e-06
-2.332077e-05 -8.945817e-12 -2.660175e-07
-1.903999e-05 -8.521959e-12 8.763837e-06
-2.207172e-05 -7.532040e-12 2.198920e-06
-1.288745e-05 -8.255617e-12 -1.734271e-06
-3.379180e-05 -8.812766e-12 2.723377e-06
-4.461886e-05 -8.594328e-12 -1.645139e-06
-3.229665e-05 -8.132669e-12 -2.670775e-06
-2.544969e-05 -7.520073e-12 -5.679876e-06
-4.226586e-05 -7.324357e-12 -9.648358e-06
-3.084248e-05 -7.192834e-12 -4.366330e-06
-2.844727e-05 -6.149427e-12 1.833241e-06
-3.681072e-05 -4.487225e-12 2.859705e-06
-4.008489e-05 -3.108974e-12 1.362450e-06
-3.008860e-05 -2.656946e-12 2.271301e-06
-1.777060e-05 -2.974768e-12 -5.400503e-06
-2.427236e-05 -4.535117e-12 -1.116428e-06
-5.037900e-05 -4.909314e-12 -4.126868e-06
-4.028832e-05 -4.993320e-12 -3.183297e-06
-3.916719e-05 -4.132893e-12 -5.387862e-07
-3.161862e-05 -2.810008e-12 5.243785e-08
-2.638888e-05 -1.521809e-12 -4.070619e-06
-1.956633e-05 -1.052471e-12 -1.183193e-05
-1.997643e-05 -1.304460e-12 4.209980e-06
-3.054461e-05 4.776501e-13 -2.123247e-06
-1.761302e-05 1.225220e-12 3.307350e-06
-1.715751e-05 2.190707e-12 2.445871e-06
-3.188704e-05 2.473449e-12 1.518848e-06
-4.185773e-05 2.568636e-12 8.004305e-06
-4.012338e-05 2.972978e-12 6.011609e-06
-2.270587e-05 2.661723e-12 8.636202e-06
-2.682635e-05 2.382034e-12 9.454045e-06
-2.706144e-05 2.239744e-12 4.322474e-06
-2.923364e-05 1.611307e-12 -1.607102e-06
-2.153566e-05 7.439800e-13 -6.576286e-07
-2.977183e-05 4.570278e-13 2.777084e-07
-4.407436e-05 8.647559e-13 -4.038308e-06
-2.458334e-05 8.059164e-13 1.565420e-06
-3.572944e-05 2.009854e-12 -5.900011e-06
-4.642558e-05 1.739717e-12 -8.401052e-06
-4.438456e-05 8.361312e-13 -3.540316e-06
-4.248013e-05 8.626811e-13 -2.597023e-06
-6.450915e-05 1.123758e-12 -5.610487e-06
-6.151163e-05 1.285339e-12 -1.471864e-06
-6.751120e-05 1.857666e-12 -2.417931e-06
-8.468669e-05 2.168841e-12 -8.500083e-06
-7.641791e-05 1.942850e-12 1.645573e-07
-6.221529e-05 3.199125e-12 -8.479716e-07
-7.027870e-05 3.860622e-12 -3.865342e-06
-7.260626e-05 3.073512e-12 -5.497694e-06
-5.884627e-05 1.223766e-12 -6.574603e-06
-4.536153e-05 -2.613359e-13 -2.925207e-06
-1.562446e-05 -1.997700e-13 5.694258e-06
-1.370702e-05 9.112059e-13 9.448292e-06
-1.631295e-05 1.383920e-12 9.736750e-06
-1.584375e-05 8.070527e-13 2.200840e-06
-7.413990e-06 -7.442457e-13 7.106414e-06
1.142171e-05 -7.731926e-13 5.731983e-06
3.358736e-05 -2.436772e-14 1.424747e-05
3.048978e-05 2.521684e-12 7.650901e-06
5.124103e-05 3.489709e-12 -3.845967e-06
5.537108e-05 2.814151e-12 -2.245155e-06
5.615200e-05 2.388608e-12 -3.254007e-06
5.164523e-05 2.557921e-12 -7.136428e-06
4.381663e-05 2.762905e-12 2.681560e-06
4.740631e-05 4.124137e-12 -2.076981e-06
5.462883e-05 4.134005e-12 3.799143e-06
3.090287e-05 4.368911e-12 3.242600e-06
3.232592e-05 4.400354e-12 5.068779e-06
2.294110e-05 4.842009e-12 -2.341745e-06
2.703935e-05 4.461382e-12 -5.992605e-06
2.825426e-05 3.842950e-12 -1.971776e-06
3.617502e-05 4.202358e-12 2.065664e-06
1.491894e-05 5.223143e-12 -2.936599e-06
7.505122e-06 5.314962e-12 -6.895797e-06
2.792437e-05 5.218101e-12 6.258413e-06
2.215773e-05 6.284394e-12 8.171723e-06
-2.544423e-05 6.499179e-12 -5.555193e-07
-5.001536e-05 4.934378e-12 2.980157e-06
-8.176336e-05 3.441313e-12 3.063332e-07
-6.528611e-05 1.773601e-12 9.732935e-06
-6.639554e-05 1.932413e-12 1.367956e-05
-1.299424e-04 2.971293e-12 1.043737e-05
-2.145055e-04 2.912231e-12 -4.547712e-06
-2.945313e-04 6.164406e-13 -7.675833e-06
-2.083569e-04 -1.442575e-12 -4.519750e-06
7.579188e-05 -1.504999e-12 -9.713405e-07
2.774353e-04 4.077400e-13 -6.434679e-06
3.658544e-04 1.541702e-12 5.752060e-06
3.593544e-04 3.122394e-12 3.694032e-06
3.469185e-04 3.322430e-12 -1.494331e-06
3.349535e-04 2.122132e-12 -6.550893e-06
3.338854e-04 6.713727e-13 -4.557770e-06
2.518905e-04 -2.262146e-13 -2.019900e-05
1.113251e-04 -3.133424e-12 -1.326235e-05
2.124334e-05 -4.218685e-12 4.082669e-06
-1.547563e-05 -2.866959e-12 5.918292e-07
-1.821716e-05 -1.839301e-12 -9.373866e-07
-6.436441e-05 -1.349307e-12 -6.693477e-06
-1.233817e-04 -2.362813e-12 -1.046695e-05
-1.054638e-04 -4.153654e-12 9.394931e-07
-8.488202e-05 -4.153118e-12 -4.271509e-07
-7.534270e-05 -4.515792e-12 -8.684447e-07
-8.769308e-05 -4.797946e-12 6.281333e-06
-1.003475e-04 -4.518311e-12 2.110359e-06
-9.191289e-05 -5.189632e-12 2.963907e-06
-8.664100e-05 -5.283707e-12 1.066895e-05
-9.968359e-05 -4.064525e-12 6.110940e-06
-9.220271e-05 -3.589994e-12 6.759641e-06
-8.025282e-05 -3.322554e-12 -4.373546e-06
-5.320893e-05 -4.330688e-12 4.768349e-06
-6.317649e-05 -3.448901e-12 8.881040e-06
-6.198540e-05 -1.852531e-12 3.872919e-06
-7.345690e-05 -7.110259e-13 3.541636e-06
-7.032572e-05 2.208884e-13 6.999163e-06
-6.266803e-05 1.233786e-12 4.012598e-06
-4.818508e-05 1.511082e-12 5.491591e-06
-3.994803e-05 2.293287e-12 -1.485285e-06
-4.357068e-05 1.866199e-12 -7.517523e-06
-5.695013e-05 5.520521e-13 -9.964913e-06
-4.830333e-05 -2.690051e-13 -8.195804e-06
-4.292276e-05 7.020095e-13 -4.130853e-06
-4.511765e-05 3.053153e-12 -5.282108e-06
-2.730894e-05 4.670966e-12 1.682399e-06
-3.165328e-05 6.249150e-12 -1.277197e-06
-3.653505e-05 5.821927e-12 -1.267510e-06
-3.921030e-05 4.451135e-12 -1.349061e-06
-2.469937e-05 3.253745e-12 8.259968e-06
-1.672003e-05 3.319658e-12 5.167568e-06
-2.678047e-05 2.832893e-12 5.321436e-06
-3.739585e-05 1.719905e-12 -6.050409e-06
-2.690650e-05 -1.010315e-12 -3.428903e-06
-1.995320e-05 -2.550719e-12 1.669218e-06
-1.313049e-05 -2.138818e-12 5.215736e-06
-6.838180e-06 -6.055418e-13 5.162649e-07
-6.434226e-06 -4.585420e-14 -3.954201e-06
-1.732139e-05 -6.506639e-13 -5.523921e-06
-2.180338e-05 -1.939815e-12 -8.657104e-06
-2.919889e-05 -3.144572e-12 -1.040830e-05
-1.929224e-05 -3.984942e-12 -4.732729e-06
-1.114495e-05 -3.957472e-12 -2.168141e-06
-1.766157e-05 -3.990177e-12 -2.730978e-06
-2.045411e-05 -4.276173e-12 3.284249e-06
-1.826465e-05 -3.801700e-12 1.032437e-06
-1.424895e-05 -3.470331e-12 -8.929119e-06
-9.744864e-06 -4.363809e-12 -1.176801e-05
-1.808075e-05 -5.733851e-12 -6.483413e-06
-1.646653e-05 -5.997234e-12 1.007337e-06
-8.459892e-06 -4.847591e-12 -3.321958e-06
9.268798e-07 -4.038332e-12 -5.602350e-06
-6.581575e-06 -3.705498e-12 -8.050594e-06
1.034225e-05 -4.166816e-12 3.661176e-06
5.729190e-06 -3.773396e-12 5.694648e-06
1.145071e-05 -3.684299e-12 6.040923e-06
1.089372e-05 -4.063853e-12 2.048751e-06
2.346206e-05 -5.136412e-12 1.350710e-07
2.769269e-05 -6.074579e-12 5.939326e-06
1.380674e-05 -5.310660e-12 -8.362817e-07
2.015274e-05 -4.634674e-12 5.466611e-06
2.997524e-05 -2.436467e-12 6.823340e-06
4.187170e-05 -4.461391e-13 7.460634e-06
4.313622e-05 7.376326e-13 6.647224e-06
7.233618e-05 1.605712e-12 1.322269e-05
7.138377e-05 3.125509e-12 1.702520e-06
6.896546e-05 2.459285e-12 -2.317501e-06
8.601624e-05 1.444468e-12 -1.077039e-05
9.753060e-05 -2.660926e-13 8.332775e-07
8.967808e-05 5.630950e-13 3.286106e-06
1.003500e-04 2.380699e-12 7.641351e-06
1.097660e-04 5.083370e-12 1.044684e-05
1.068804e-04 7.041829e-12 4.029162e-06
1.218084e-04 7.127280e-12 6.871812e-06
1.210603e-04 7.412460e-12 1.164944e-07
1.156083e-04 7.590241e-12 -5.900019e-06
1.284853e-04 7.649403e-12 3.384479e-06
1.303823e-04 8.854910e-12 1.044106e-05
1.116443e-04 1.046617e-11 5.810739e-06
1.029683e-04 1.108876e-11 1.319749e-05
9.667367e-05 1.216482e-11 1.627503e-05
9.979278e-05 1.314640e-11 1.946907e-05
9.173777e-05 1.345762e-11 1.336108e-05
9.290024e-05 1.240316e-11 1.159797e-05
8.694879e-05 1.139564e-11 6.575011e-06
8.508286e-05 1.056400e-11 9.410867e-06
8.507930e-05 1.116163e-11 1.522179e-05
7.733260e-05 1.320060e-11 1.763932e-05
7.597797e-05 1.527351e-11 1.090192e-05
5.400556e-05 1.562147e-11 1.766508e-06
4.471004e-05 1.400322e-11 -2.279430e-06
4.743313e-05 1.236507e-11 -1.142883e-06
4.077970e-05 1.205676e-11 1.336830e-06
3.937089e-05 1.267026e-11 1.431282e-06
3.410095e-05 1.303419e-11 -9.705705e-06
4.680888e-05 1.179710e-11 -2.921084e-06
4.243742e-05 1.146131e-11 9.058525e-06
3.400210e-05 1.222199e-11 -2.565086e-06
2.242037e-05 1.148846e-11 -1.200460e-06
2.280821e-05 1.045153e-11 -5.434918e-06
2.831473e-05 8.555624e-12 -3.541794e-06
3.054990e-05 6.863456e-12 -5.402453e-06
1.830270e-05 5.475251e-12 -2.986706e-06
7.808519e-06 5.155931e-12 -2.976037e-06
1.701765e-06 4.958275e-12 9.603712e-07
-1.574505e-05 4.871175e-12 4.864931e-06
7.302597e-06 5.050310e-12 1.030825e-07
2.447570e-06 3.979926e-12 -2.706289e-06
-3.758467e-06 1.863768e-12 -1.171567e-06
3.434974e-06 1.678011e-13 -1.528258e-06
-7.917512e-06 -1.078335e-12 1.403901e-06
-8.685088e-06 -1.228226e-12 -3.411476e-07
-1.615270e-05 -1.827674e-12 -1.835752e-06
-2.232618e-05 -2.740899e-12 -5.156387e-06
4.835645e-06 -4.014792e-12 2.209888e-06
-2.835225e-06 -3.944607e-12 3.756284e-06
1.950545e-06 -4.009468e-12 -1.098733e-06
1.033430e-06 -5.011067e-12 -1.271955e-05
8.194544e-07 -7.762896e-12 -1.062297e-05
1.184247e-05 -9.158507e-12 -7.495490e-06
1.193992e-05 -9.083499e-12 -9.239697e-07
3.832766e-06 -7.541727e-12 -7.696544e-07
-4.719764e-06 -6.734996e-12 -4.359224e-06
-1.310915e-05 -7.442409e-12 -7.408627e-06
-1.078991e-05 -8.966166e-12 -3.712192e-06
-1.181696e-05 -9.456507e-12 -3.358833e-06
-1.291610e-05 -9.257695e-12 -6.831081e-06
-6.791549e-06 -9.312809e-12 4.593572e-06
-9.316995e-06 -8.200978e-12 1.347762e-05
-1.387655e-05 -6.999116e-12 -7.220767e-07
-1.943313e-05 -8.236098e-12 -1.042995e-05
-1.360096e-05 -1.004836e-11 5.051124e-07
-1.329687e-05 -9.145558e-12 2.764904e-06
-2.040455e-05 -7.912693e-12 5.421107e-06
-2.306933e-05 -6.898450e-12 2.760225e-06
-1.484424e-05 -7.052003e-12 1.753014e-06
-1.967002e-05 -7.613133e-12 -2.268814e-06
-1.746128e-05 -8.334402e-12 -2.298247e-07
-9.435176e-06 -7.690422e-12 4.355250e-06
-5.655079e-06 -5.865631e-12 6.058538e-06
-2.280030e-05 -4.489943e-12 -1.116594e-05
-2.052479e-05 -6.403670e-12 -1.023041e-05
-1.332250e-05 -7.568651e-12 -3.580453e-06
-1.301889e-05 -6.998155e-12 1.045913e-06
-1.881718e-05 -5.778525e-12 -1.016699e-05
-1.522746e-05 -6.628804e-12 -1.254642e-05
-1.803170e-05 -7.849156e-12 -8.095646e-06
-3.162904e-05 -8.202288e-12 -4.558475e-06
-3.144079e-05 -7.531497e-12 -9.709090e-06
-1.957620e-05 -7.257459e-12 1.206751e-06
-1.426705e-05 -5.660853e-12 -3.275006e-06
-3.134794e-05 -6.111140e-12 -8.136532e-06
-3.628521e-05 -7.988772e-12 -5.712235e-06
-3.330779e-05 -9.618326e-12 -1.129643e-05
-2.684202e-05 -1.079434e-11 -6.719558e-06
-1.509068e-05 -1.052976e-11 -1.069790e-06
-1.810321e-05 -9.393132e-12 -2.630189e-06
-2.908808e-05 -9.044149e-12 -3.709587e-06
-2.055645e-05 -9.611154e-12 -1.697708e-06
-3.086782e-05 -1.008736e-11 -6.780063e-06
-3.558360e-05 -1.102756e-11 1.621207e-06
-2.928479e-05 -1.031281e-11 4.191804e-06
-2.794693e-05 -9.706769e-12 3.223226e-06
-2.983345e-05 -9.751431e-12 2.009461e-06
-2.775217e-05 -1.038196e-11 -2.184818e-06
-4.343129e-05 -1.085923e-11 -5.709071e-06
-3.520463e-05 -1.078877e-11 -4.551453e-06
-3.157498e-05 -9.390627e-12 -3.393410e-07
-1.912580e-05 -7.889758e-12 2.445134e-06
-2.987628e-05 -6.582444e-12 -7.591368e-06
-4.540659e-05 -7.105171e-12 -5.193347e-06
-3.462120e-05 -6.786231e-12 -4.304183e-06
-3.061415e-05 -5.741972e-12 -7.613897e-06
-2.076301e-05 -4.578780e-12 6.280725e-06
-2.139489e-05 -1.406481e-12 3.934489e-07
-3.157079e-05 1.074215e-13 -9.981932e-07
-2.428084e-05 2.730245e-13 1.443937e-06
-3.027925e-05 7.532842e-13 -4.136455e-06
-1.830967e-05 7.869821e-13 -4.926692e-06
-2.874000e-05 9.084588e-13 -1.268465e-06
-3.837965e-05 1.442555e-12 8.305319e-07
-3.431695e-05 1.847186e-12 -4.317347e-06
-3.727728e-05 1.618197e-12 2.139712e-06
-3.442100e-05 2.738301e-12 6.253138e-06
-3.695888e-05 4.445204e-12 5.708464e-06
-3.766498e-05 4.947247e-12 4.917264e-08
-3.799996e-05 3.367566e-12 3.317170e-06
-4.156800e-05 1.845821e-12 6.240105e-06
-4.657472e-05 1.473481e-12 2.685756e-06
-4.281263e-05 1.908284e-12 8.085658e-06
-4.137714e-05 3.924485e-12 7.529655e-06
-4.411055e-05 5.337505e-12 9.333237e-06
-6.547075e-05 6.074926e-12 -9.483239e-06
-6.936905e-05 4.011142e-12 2.163087e-06
-6.496776e-05 4.901150e-12 9.928823e-06
-6.251848e-05 7.203042e-12 2.656891e-06
-6.525113e-05 8.272343e-12 3.122398e-06
-6.452536e-05 8.895537e-12 -1.357629e-06
-7.081062e-05 8.009661e-12 -1.470150e-05
-7.076622e-05 5.212843e-12 -6.162996e-06
-9.315166e-05 4.558099e-12 -9.212449e-06
-7.785817e-05 4.373159e-12 -2.247032e-06
-5.419235e-05 5.560374e-12 -4.788232e-06
-3.622586e-05 5.378690e-12 -5.970999e-06
-2.694136e-05 4.297571e-12 2.150534e-06
-1.561479e-05 4.168517e-12 -1.193859e-06
-1.522167e-05 3.869069e-12 2.196315e-06
-1.305322e-05 3.834961e-12 2.785807e-06
1.397914e-05 3.513285e-12 1.044455e-05
1.524487e-05 3.575378e-12 4.133874e-06
3.293003e-05 2.234512e-12 6.263523e-06
4.339006e-05 1.453153e-12 -6.705450e-07
4.567284e-05 2.953690e-13 5.705961e-07
5.912626e-05 -1.494850e-13 -1.097905e-06
5.219195e-05 -6.387134e-13 1.060954e-05
4.697603e-05 9.858690e-13 1.130250e-05
5.349029e-05 2.802859e-12 7.467031e-06
4.781301e-05 4.086978e-12 2.935472e-06
5.118097e-05 4.337373e-12 2.983050e-07
5.264850e-05 4.392896e-12 -1.116384e-07
4.064373e-05 4.414025e-12 -1.025783e-05
4.564018e-05 3.371364e-12 -1.452977e-05
3.890090e-05 2.451456e-12 -7.160681e-06
8.659282e-06 3.177180e-12 -3.780054e-06
1.284467e-05 4.234179e-12 -4.386340e-06
8.215857e-06 5.389671e-12 4.010988e-06
1.362850e-05 6.745825e-12 -7.478740e-07
2.696099e-05 5.591410e-12 2.878194e-06
1.003661e-05 4.198036e-12 4.874244e-06
-4.983625e-05 3.779708e-12 -4.979892e-06
-8.542179e-05 2.261489e-12 8.249134e-06
-1.052451e-04 2.616892e-12 1.237227e-05
-1.015173e-04 3.154075e-12 8.616905e-06
-1.352203e-04 2.806156e-12 1.125478e-05
-2.155624e-04 2.623536e-12 5.864937e-06
-2.916713e-04 1.901466e-12 4.778783e-07
-2.860302e-04 1.163592e-12 -6.023514e-06
-4.745744e-05 1.423287e-13 -8.375482e-06
2.454838e-04 -9.031249e-14 -3.953323e-07
4.152190e-04 2.011175e-12 2.516695e-06
4.369219e-04 4.900346e-12 6.760976e-06
4.274759e-04 7.333835e-12 1.157504e-05
3.873536e-04 9.342131e-12 8.330627e-06
3.419810e-04 9.592325e-12 1.146434e-05
2.541212e-04 9.652756e-12 -3.558357e-06
1.525740e-04 6.644038e-12 -1.336266e-06
3.659036e-05 4.516478e-12 -5.230180e-06
-1.804664e-05 2.408143e-12 -9.359075e-06
-3.079090e-05 8.651572e-13 -4.748439e-07
-4.738047e-05 1.596491e-12 7.205545e-07
-1.107470e-04 2.759554e-12 -5.436151e-06
-1.253034e-04 2.098870e-12 -4.855176e-06
-1.089009e-04 1.194202e-12 -7.810194e-06
-9.091952e-05 -5.089551e-13 -5.063101e-06
-9.814271e-05 -1.704300e-12 3.652975e-06
-1.048553e-04 -1.613355e-12 -4.291672e-06
-8.271234e-05 -2.971337e-12 -2.402011e-06
-8.352382e-05 -3.778676e-12 -3.706535e-06
-8.722616e-05 -4.414557e-12 5.828209e-06
-8.863731e-05 -2.865886e-12 6.126515e-06
-8.067746e-05 -1.269699e-12 3.647266e-07
-7.422157e-05 -1.141983e-12 2.234566e-06
-7.889204e-05 -1.253997e-12 1.054484e-05
-8.815010e-05 3.613062e-14 1.034719e-05
-8.466966e-05 1.455592e-12 5.290648e-06
-6.791991e-05 2.003194e-12 1.986684e-06
-5.308232e-05 1.385477e-12 -6.156745e-06
-5.527461e-05 -1.015054e-12 -1.203738e-05
-5.975053e-05 -4.041209e-12 -6.128542e-06
-5.734734e-05 -4.615036e-12 4.276988e-06
-5.097088e-05 -2.642711e-12 -1.507138e-06
-6.237304e-05 -1.687488e-12 -7.458348e-06
-5.701803e-05 -2.360981e-12 -8.661466e-06
-4.424610e-05 -3.524525e-12 -7.391606e-06
-4.089629e-05 -4.067020e-12 -5.664848e-06
-3.955296e-05 -3.821904e-12 -2.046009e-06
-2.954159e-05 -3.056068e-12 6.684411e-06
-2.851027e-05 -1.253032e-12 6.790357e-06
-3.240548e-05 -7.802400e-13 -3.331723e-06
-3.582124e-05 -2.843809e-12 1.987733e-06
-3.615411e-05 -3.833383e-12 3.898659e-06
-3.073602e-05 -4.090318e-12 4.940684e-07
-2.193601e-05 -4.855800e-12 -8.695868e-07
-2.431028e-05 -5.241632e-12 -2.345138e-06
-2.288139e-05 -5.151472e-12 1.918979e-06
-1.664895e-05 -3.690098e-12 6.403515e-06
-1.866857e-05 -1.145826e-12 -3.306709e-06
-2.768861e-05 -3.322380e-13 -1.228184e-05
-6.044251e-06 -1.519466e-12 -6.361476e-06
-1.457128e-05 -2.144367e-12 -3.533285e-06
-2.869033e-05 -2.097723e-12 -7.146124e-06
-2.737945e-05 -2.251744e-12 2.224434e-06
-2.780435e-05 -7.352173e-13 -2.654542e-06
-3.318572e-05 -1.343115e-12 -6.826456e-06
-2.970432e-05 -3.190468e-12 -1.506062e-05
-2.307936e-05 -6.148546e-12 -1.365925e-05
-3.495583e-05 -7.913020e-12 -3.465876e-06
-1.573299e-05 -7.376410e-12 9.597049e-07
-2.876275e-05 -6.303114e-12 -9.924571e-07
-2.881801e-05 -7.114123e-12 -1.939397e-06
-3.712158e-06 -8.767712e-12 -1.646962e-06
-1.097248e-05 -1.021247e-11 -7.662697e-06
-1.544461e-05 -1.173162e-11 -6.053577e-07
1.235516e-06 -1.122320e-11 1.039894e-05
-3.833749e-06 -8.802083e-12 -6.142974e-06
-1.481249e-06 -9.661564e-12 -9.250896e-06
-3.436807e-07 -1.080263e-11 -1.417634e-05
1.982353e-06 -1.155060e-11 -6.296785e-06
2.289352e-05 -9.524610e-12 2.806345e-06
1.915199e-05 -5.432934e-12 2.278288e-07
2.249467e-05 -2.992190e-12 -1.654021e-06
4.246634e-05 -2.415220e-12 1.963914e-06
4.480343e-05 -2.537828e-12 8.962029e-06
4.564625e-05 -2.209169e-12 -5.596405e-07
6.503076e-05 -3.850849e-12 -7.297968e-07
8.321252e-05 -5.538784e-12 4.823116e-06
9.186662e-05 -6.316164e-12 9.985157e-06
1.037965e-04 -5.551422e-12 1.454376e-05
1.134894e-04 -3.173575e-12 1.368163e-05
1.102910e-04 -6.677003e-13 1.195788e-05
1.177001e-04 1.249790e-12 1.399797e-05
1.132546e-04 3.047095e-12 5.852988e-07
1.308364e-04 2.384308e-12 1.139562e-06
1.268977e-04 2.978617e-12 6.219050e-06
1.338854e-04 5.706972e-12 7.660672e-06
1.252346e-04 9.071301e-12 6.877345e-06
1.184023e-04 1.172838e-11 9.305076e-06
1.168051e-04 1.383110e-11 7.461505e-06
1.131996e-04 1.473061e-11 8.684657e-06
1.198291e-04 1.566567e-11 1.027647e-05
1.114055e-04 1.672614e-11 -4.332644e-06
9.526681e-05 1.557474e-11 2.001637e-06
8.937061e-05 1.601950e-11 4.693077e-06
9.594960e-05 1.688042e-11 2.196864e-06
1.053908e-04 1.731014e-11 6.928545e-06
9.668128e-05 1.858877e-11 1.772588e-05
7.665956e-05 2.090740e-11 9.543646e-06
5.533291e-05 2.047095e-11 8.575918e-07
5.765398e-05 1.774586e-11 -4.960906e-06
6.789095e-05 1.415494e-11 -5.920971e-06
5.488387e-05 1.152835e-11 -2.043115e-06
5.493357e-05 1.063364e-11 2.614996e-06
5.449614e-05 1.098270e-11 6.584337e-06
4.078519e-05 1.162016e-11 6.972376e-06
3.184346e-05 1.199637e-11 2.809987e-06
3.480684e-05 1.123552e-11 2.810348e-06
3.547291e-05 1.092309e-11 3.125216e-06
1.266612e-05 1.083789e-11 3.117723e-06
1.659346e-05 1.024037e-11 -1.365097e-06
1.835578e-05 8.528565e-12 -9.426576e-06
1.851762e-05 6.064657e-12 3.001636e-06
1.536988e-05 6.697154e-12 -1.130817e-06
5.174912e-06 7.017892e-12 -1.641220e-05
-4.965407e-06 4.338743e-12 6.959495e-07
-6.573548e-06 4.455452e-12 1.867719e-06
-7.790167e-06 4.439667e-12 5.980217e-06
-5.585324e-06 4.634837e-12 8.527238e-06
2.474925e-06 4.471074e-12 -1.191865e-06
2.452415e-06 1.922330e-12 -6.945930e-06
-7.092330e-06 -1.511382e-12 -3.646791e-06
-6.745959e-06 -3.376056e-12 -2.526538e-06
1.329898e-06 -3.891764e-12 4.258391e-07
-7.929579e-07 -3.512674e-12 4.431616e-06
-3.435783e-07 -2.986783e-12 3.641696e-06
9.108425e-06 -3.062664e-12 7.833076e-06
1.779968e-06 -2.499370e-12 -5.676135e-07
3.415303e-06 -2.952700e-12 -4.367105e-07
-3.255260e-06 -2.643787e-12 -1.900642e-06
-1.051938e-06 -2.646756e-12 1.189469e-06
-1.735851e-05 -2.203275e-12 -8.214791e-06
-1.047945e-05 -3.150761e-12 3.950284e-06
-1.444596e-05 -1.568322e-12 3.389241e-08
-6.082931e-06 -8.460597e-13 2.125352e-06
-1.539667e-05 2.439899e-13 -3.679804e-06
-1.867188e-05 -2.950922e-13 -2.348365e-06
-2.391186e-05 -9.382035e-13 -1.162456e-05
-1.906781e-05 -3.358868e-12 7.543107e-07
-1.796459e-05 -2.839981e-12 -2.684709e-06
-5.997778e-06 -2.450206e-12 -8.698465e-06
-1.073970e-05 -3.121464e-12 -9.455865e-06
-2.664853e-05 -4.569432e-12 -4.570002e-06
-1.911775e-05 -5.311841e-12 -2.093645e-06
-2.353649e-05 -5.835253e-12 3.257220e-06
-1.296975e-05 -5.876663e-12 2.573415e-06
-9.876093e-06 -6.879922e-12 8.331637e-07
-3.493959e-06 -8.486590e-12 -3.344003e-07
-4.917780e-06 -9.890885e-12 2.994989e-07
-2.596648e-05 -1.011239e-11 -9.934099e-08
-3.090801e-05 -9.715400e-12 2.424488e-06
-2.456207e-05 -8.464539e-12 1.818121e-06
-1.926404e-05 -7.489817e-12 1.496016e-06
-2.602072e-05 -7.064165e-12 -5.546418e-08
-2.420951e-05 -6.955182e-12 -1.877917e-06
-3.288498e-05 -6.718733e-12 1.845612e-06
-2.847313e-05 -5.598896e-12 -2.825308e-07
-2.782573e-05 -5.160548e-12 -5.056540e-06
-2.803187e-05 -5.908407e-12 -9.051911e-06
-3.041015e-05 -7.412929e-12 -1.918460e-06
-2.599219e-05 -7.273696e-12 2.694627e-06
-1.500011e-05 -6.145087e-12 1.309073e-06
-1.971026e-05 -5.653352e-12 -3.609014e-06
-2.411144e-05 -6.901831e-12 -9.516709e-06
-2.105821e-05 -9.326633e-12 -3.747104e-06
-4.070324e-05 -1.027648e-11 -1.018515e-05
-3.341904e-05 -1.101943e-11 -8.785162e-06
-2.412205e-05 -1.064421e-11 -5.666802e-06
-2.604866e-05 -9.724166e-12 1.845302e-06
-2.080212e-05 -8.852334e-12 8.608990e-07
-2.598012e-05 -8.737242e-12 -8.609067e-07
-1.993954e-05 -8.667887e-12 5.043119e-06
-4.194954e-05 -7.281703e-12 -7.140351e-06
-3.701120e-05 -8.253082e-12 -2.071241e-06
-3.117305e-05 -7.801181e-12 4.352281e-06
-2.773719e-05 -5.867665e-12 1.476249e-06
-2.248126e-05 -4.571901e-12 9.362473e-06
-2.793951e-05 -2.323418e-12 8.554875e-07
-4.085002e-05 -1.977674e-12 3.080937e-06
-4.450186e-05 -1.298352e-12 4.803707e-07
-3.639417e-05 -9.217675e-13 -1.398667e-06
-2.880362e-05 -5.431433e-13 -1.155609e-07
-2.662600e-05 2.373757e-13 8.801479e-06
-2.550242e-05 2.733747e-12 4.784799e-06
-3.291449e-05 3.807938e-12 3.499856e-06
-3.069967e-05 4.224454e-12 -1.041244e-06
-1.792911e-05 3.576983e-12 4.455772e-06
-3.104583e-05 4.239544e-12 -3.930157e-06
-3.082656e-05 3.373127e-12 -4.504785e-06
-3.499050e-05 2.652387e-12 -5.002842e-06
-2.887869e-05 1.799625e-12 -1.023438e-05
-3.300717e-05 6.006372e-13 -1.218888e-06
-3.912705e-05 1.377524e-12 2.620457e-06
-3.902047e-05 2.859079e-12 -4.566407e-06
-3.903476e-05 2.594144e-12 -2.837861e-08
-3.034783e-05 2.566730e-12 2.108174e-06
-1.844188e-05 2.041659e-12 -3.297486e-06
-1.639397e-05 5.242761e-13 -5.975659e-06
-2.857321e-05 -1.133792e-12 -1.618654e-06
-3.498687e-05 -1.272242e-12 -1.752280e-06
-3.491506e-05 -1.091706e-12 -7.620408e-06
-3.135870e-05 -1.781916e-12 -4.447622e-06
-2.508330e-05 -1.623863e-12 4.488356e-06
-1.213556e-05 1.838248e-13 1.353030e-05
-1.390138e-05 2.768480e-12 6.219431e-06
-1.445650e-05 3.048839e-12 5.169515e-06
-2.464244e-05 2.517526e-12 -4.397679e-06
-2.715907e-05 8.094603e-14 -4.036868e-06
-1.274942e-05 -1.236607e-12 7.781528e-06
-2.702957e-05 8.261724e-13 4.053208e-06
-2.673401e-05 2.416423e-12 -4.386817e-06
-2.326597e-05 1.834462e-12 -9.899016e-06
-3.121962e-05 -2.354791e-13 -1.276693e-05
-3.488998e-05 -1.996564e-12 -1.225226e-05
-5.356427e-05 -2.089827e-12 -6.173849e-06
-6.746361e-05 -1.044821e-12 -2.013797e-06
-7.496449e-05 -7.746181e-15 -5.564237e-06
-5.400161e-05 -1.026524e-12 3.812177e-06
-6.758372e-05 -1.010199e-12 -2.076586e-06
-6.485878e-05 -2.314174e-12 -6.174767e-06
-6.268996e-05 -3.852618e-12 -5.244251e-06
-6.433179e-05 -5.428443e-12 -7.815600e-06
-6.072583e-05 -7.384399e-12 2.859653e-06
-4.578869e-05 -7.000269e-12 3.486775e-06
-3.660442e-05 -6.144060e-12 -4.011866e-06
-2.620162e-05 -6.490986e-12 3.005661e-07
-4.815713e-06 -5.849542e-12 2.492721e-06
2.416660e-06 -4.855277e-12 7.332881e-06
-2.368756e-06 -3.246278e-12 9.068878e-06
-3.848570e-06 -1.672310e-12 -4.411279e-07
1.439880e-05 -1.990728e-12 6.855647e-06
3.924803e-05 -6.296412e-13 9.915546e-06
4.900455e-05 1.064220e-12 -7.725170e-08
5.106097e-05 8.461107e-13 -2.658082e-06
5.802976e-05 2.395971e-13 1.716690e-06
5.662099e-05 8.683705e-13 -7.243402e-06
5.964478e-05 4.961245e-13 -1.209816e-05
6.670526e-05 6.501982e-13 -3.563441e-07
6.250173e-05 3.242319e-12 7.325827e-06
5.952500e-05 6.415952e-12 -2.105350e-06
5.055704e-05 6.269199e-12 -1.028550e-06
5.476329e-05 5.286860e-12 -2.213931e-07
5.518854e-05 3.704558e-12 -7.042300e-06
5.449992e-05 1.016272e-12 -1.573597e-05
5.629431e-05 -2.691868e-12 -1.518581e-06
3.438992e-05 -2.942441e-12 4.602044e-06
2.006459e-05 -2.054125e-12 -2.094608e-06
2.476443e-05 -2.435215e-12 9.442378e-07
2.501614e-05 -2.313312e-12 7.539679e-06
2.729662e-05 -9.455227e-13 -1.151073e-06
2.695789e-05 -1.220528e-12 -3.713662e-06
-8.781429e-06 -1.785624e-12 -3.883574e-06
-6.858872e-05 -2.140356e-12 6.326221e-06
-9.966054e-05 -4.495417e-13 1.022628e-05
-9.180605e-05 1.603279e-12 1.174908e-05
-1.140669e-04 3.311255e-12 1.067192e-05
-1.872213e-04 4.056737e-12 3.113383e-06
-2.572430e-04 2.912040e-12 3.455058e-07
-3.091043e-04 1.350336e-12 -6.233654e-06
-1.836507e-04 -4.329469e-13 1.029111e-06
1.040137e-04 9.412113e-13 -1.450176e-06
3.615651e-04 3.075972e-12 -4.181765e-07
4.423530e-04 5.485296e-12 -1.140579e-06
4.599647e-04 6.872814e-12 1.015588e-06
4.433051e-04 7.678581e-12 3.695773e-06
3.828979e-04 7.928598e-12 2.045482e-06
2.945595e-04 7.222791e-12 -3.338718e-06
1.959938e-04 4.908479e-12 -1.893114e-06
7.366850e-05 2.824729e-12 -6.401382e-06
2.175895e-07 3.314428e-13 -2.352160e-06
-2.860242e-05 -9.701419e-14 -2.397783e-06
-3.745826e-05 9.917946e-14 -2.704839e-06
-8.568240e-05 6.482916e-13 -1.270624e-05
-1.024083e-04 -1.040201e-12 -2.723066e-06
-9.200136e-05 -8.776652e-13 -1.282440e-06
-7.084409e-05 -8.097587e-13 -2.620227e-06
-7.292222e-05 -1.110109e-12 1.791363e-06
-9.807693e-05 -1.155292e-12 5.843416e-07
-8.735851e-05 -1.870722e-12 -4.192029e-06
-6.123234e-05 -3.335553e-12 -3.834221e-06
-7.278688e-05 -4.181276e-12 -2.098006e-06
-9.224457e-05 -4.650860e-12 -2.214807e-07
-8.274525e-05 -4.549592e-12 -4.676288e-06
-6.819030e-05 -5.057029e-12 2.029851e-06
-6.117539e-05 -3.794702e-12 1.267567e-05
-7.627770e-05 -3.405661e-13 1.072874e-05
-7.860663e-05 2.406708e-12 3.465299e-06
-5.909326e-05 2.814233e-12 -1.732505e-07
-5.349577e-05 1.485054e-12 -3.795269e-07
-4.909528e-05 2.539814e-14 5.180952e-06
-4.577320e-05 3.316138e-13 1.256657e-05
-5.073063e-05 2.565413e-12 4.414188e-06
-4.355003e-05 3.112394e-12 -2.227890e-06
-3.981035e-05 2.371464e-12 -8.549079e-06
-4.668682e-05 4.853303e-13 -9.674368e-06
-4.906245e-05 -4.816644e-13 5.011580e-07
-3.262871e-05 1.871954e-12 5.259357e-06
-2.764268e-05 5.219077e-12 -3.054554e-06
-2.944128e-05 5.504013e-12 -4.899220e-06
-3.282482e-05 4.403404e-12 3.465458e-06
-2.604016e-05 4.440477e-12 2.728686e-06
-2.903075e-05 4.249427e-12 5.235540e-06
-2.967192e-05 3.857359e-12 8.911857e-06
-4.051144e-05 3.402219e-12 -1.744690e-06
-2.526733e-05 1.768450e-13 1.998267e-06
-2.014423e-05 -1.550217e-12 3.968922e-06
-2.200260e-05 -1.433440e-12 -4.245522e-06
-1.368138e-05 -1.695910e-12 5.111718e-06
-2.615909e-05 3.663552e-13 -4.407725e-07
-3.327420e-05 1.233580e-12 -3.939334e-06
-2.921770e-05 1.258208e-12 -9.823814e-07
-2.241602e-05 2.021576e-12 -4.725891e-06
-2.058371e-05 2.037877e-12 -1.346062e-06
-2.681834e-05 2.443467e-12 -9.806589e-07
-2.814487e-05 2.344631e-12 -1.875213e-06
-1.604361e-05 1.957600e-12 -3.049957e-06
-2.279227e-05 1.599109e-12 -1.336842e-06
-1.830431e-05 1.673977e-12 -1.336955e-06
-1.862214e-05 2.092939e-12 -9.114730e-06
-2.452317e-06 7.400031e-13 6.462511e-07
-2.773896e-05 9.718058e-13 -2.860104e-06
-4.337182e-05 2.327102e-14 -6.017746e-06
-3.533045e-05 -1.229046e-12 -5.699804e-07
-2.258028e-05 -1.023845e-12 -7.280871e-06
-2.330710e-05 -2.365463e-12 -1.475215e-06
-2.595894e-05 -3.446798e-12 2.303206e-06
-1.231865e-05 -4.630671e-12 1.824098e-06
-9.372609e-06 -6.342163e-12 1.108324e-06
-1.282669e-05 -7.658119e-12 -1.668132e-06
-5.055721e-06 -8.919012e-12 3.607211e-06
7.622508e-07 -8.215290e-12 9.136896e-06
1.603034e-05 -5.851313e-12 6.871720e-06
2.188238e-05 -3.833404e-12 1.941189e-06
2.976531e-05 -3.139272e-12 -6.029007e-07
4.811940e-05 -2.788779e-12 -1.583493e-06
4.421245e-05 -2.242874e-12 -2.444715e-06
5.627903e-05 -1.648866e-12 1.173768e-06
7.378861e-05 -4.712330e-13 6.878694e-06
9.105664e-05 1.398037e-12 1.299431e-05
9.225281e-05 3.789111e-12 6.314704e-07
1.019432e-04 3.115110e-12 7.472265e-07
1.161771e-04 2.790036e-12 5.445590e-06
1.226253e-04 3.964974e-12 -8.610640e-07
1.181304e-04 3.951372e-12 -3.255378e-07
1.164095e-04 4.103338e-12 -3.996371e-06
1.262772e-04 3.977765e-12 -1.403582e-06
1.216498e-04 4.810894e-12 2.740644e-06
1.208310e-04 6.583468e-12 9.370731e-06
1.190689e-04 9.157353e-12 1.237117e-05
1.054621e-04 1.093685e-11 1.113818e-05
9.323025e-05 1.067157e-11 1.610620e-06
9.617873e-05 7.926770e-12 4.642939e-06
1.042483e-04 6.658277e-12 1.502271e-05
1.139119e-04 8.746785e-12 1.451078e-05
1.161060e-04 1.117043e-11 6.127644e-06
1.060392e-04 1.131041e-11 7.959225e-06
9.094232e-05 1.112135e-11 1.538415e-05
7.340834e-05 1.288008e-11 -1.054911e-06
6.544432e-05 1.211759e-11 7.623085e-06
6.452643e-05 1.396845e-11 1.326360e-05
6.400791e-05 1.694577e-11 5.588216e-06
6.305320e-05 1.749267e-11 7.028862e-06
6.061449e-05 1.769902e-11 4.312597e-06
6.526718e-05 1.738919e-11 5.346154e-06
5.312008e-05 1.760973e-11 -6.247431e-06
4.493654e-05 1.544532e-11 -6.680707e-06
2.601728e-05 1.344140e-11 -3.943176e-06
1.945740e-05 1.216309e-11 -1.040326e-05
6.441669e-06 9.741270e-12 -1.150612e-05
2.890953e-05 7.397130e-12 -2.854586e-06
2.690927e-05 7.056809e-12 4.771649e-06
1.082158e-05 7.843421e-12 -1.644608e-06
1.669630e-06 6.213063e-12 -1.139680e-05
-3.167793e-06 1.559370e-12 -2.793078e-06
1.570773e-06 -1.252117e-12 4.427058e-07
-8.416559e-06 -2.714185e-12 -1.002433e-05
-6.981726e-06 -5.607127e-12 -5.590858e-06
2.978853e-06 -6.892093e-12 -2.814659e-06
-8.989738e-07 -7.412168e-12 -3.769985e-06
6.502002e-06 -8.412041e-12 -2.170979e-06
-2.050003e-06 -8.778290e-12 1.908848e-06
-1.349012e-05 -7.831023e-12 4.596554e-06
-1.811223e-05 -6.468327e-12 5.471013e-06
-1.526800e-05 -5.385645e-12 -6.064603e-06
-6.209588e-06 -7.084440e-12 1.607545e-06
-1.891381e-05 -6.833028e-12 1.599988e-06
-2.321720e-05 -6.371169e-12 -2.214199e-06
-1.801424e-05 -6.528029e-12 2.713135e-06
-1.363014e-05 -5.753963e-12 3.729764e-06
-8.544282e-06 -5.151531e-12 3.701005e-06
-1.029627e-05 -4.791263e-12 -1.067054e-06
-1.439694e-05 -5.160272e-12 -3.528432e-06
-1.155802e-05 -5.482148e-12 5.053008e-06
-1.928819e-05 -3.423941e-12 -3.483858e-06
-5.014908e-06 -3.231130e-12 3.811197e-06
-1.206176e-05 -1.689567e-12 -2.191910e-06
-8.296180e-06 -1.975248e-12 -4.102245e-06
-1.248081e-05 -2.951357e-12 -1.396349e-06
-1.428586e-05 -3.485497e-12 -3.932358e-06
-1.294552e-05 -4.520155e-12 -5.545504e-06
-1.021523e-05 -5.703556e-12 -8.349403e-06
-1.989756e-05 -7.207491e-12 -9.745476e-06
-1.441159e-05 -8.674970e-12 -1.721219e-05
-2.590051e-05 -1.101245e-11 -3.661790e-06
-2.399419e-05 -9.855070e-12 -2.603195e-07
-1.732060e-05 -7.944326e-12 8.565358e-07
-1.987198e-05 -6.786345e-12 4.530634e-06
-2.333349e-05 -6.091111e-12 6.854380e-06
-1.240074e-05 -5.584715e-12 2.249437e-06
-2.756508e-05 -6.466089e-12 1.725979e-06
-2.922813e-05 -7.578291e-12 -6.436061e-07
-3.045681e-05 -8.777819e-12 1.654539e-07
-3.046159e-05 -9.069616e-12 -2.693287e-06
-1.873184e-05 -9.347660e-12 -4.704118e-07
-2.089456e-05 -8.105276e-12 -2.826137e-06
-7.126283e-06 -6.735703e-12 -3.124162e-06
-2.727824e-05 -5.219463e-12 -1.045420e-05
-4.765297e-05 -5.559162e-12 -5.302402e-06
-4.006003e-05 -5.077693e-12 -1.432329e-06
-2.748783e-05 -4.245143e-12 -6.023206e-06
-3.823969e-05 -4.828172e-12 -5.582688e-06
-3.693183e-05 -5.974646e-12 -4.686394e-06
-2.958154e-05 -6.996324e-12 -3.641341e-06
-3.007126e-05 -7.823328e-12 -1.089488e-06
-3.457386e-05 -8.262887e-12 -3.987423e-06
-2.360658e-05 -9.587446e-12 1.736018e-06
-2.829138e-05 -9.412391e-12 -7.402206e-06
-1.365417e-05 -1.120861e-11 2.937031e-06
-2.520844e-05 -1.055819e-11 -2.406904e-06
-3.033297e-05 -1.090025e-11 -7.162866e-06
-2.608829e-05 -1.204759e-11 -5.002225e-07
-4.176361e-05 -1.173378e-11 2.361972e-06
-3.510817e-05 -1.096374e-11 1.127406e-05
-3.587139e-05 -8.467023e-12 2.737133e-06
-3.933173e-05 -8.163926e-12 3.901274e-06
-2.725935e-05 -7.907665e-12 6.708874e-06
-2.398925e-05 -6.840853e-12 1.049426e-05
-2.561020e-05 -4.125608e-12 4.046768e-06
-2.469556e-05 -1.826525e-12 -2.877017e-06
-1.871676e-05 -1.903045e-13 3.050118e-06
-3.086680e-05 3.079851e-12 -9.537214e-06
-2.815600e-05 3.875814e-12 -7.852500e-06
-1.305985e-05 5.029871e-12 -3.888038e-06
-1.965144e-05 6.759366e-12 -4.064483e-06
-2.150773e-05 7.519030e-12 -6.837753e-06
-3.328974e-05 6.870604e-12 -4.246897e-06
-3.831534e-05 5.997646e-12 -6.747733e-07
-4.816650e-05 5.445176e-12 -4.958831e-07
-5.099550e-05 4.443009e-12 2.200744e-07
-3.713357e-05 3.592972e-12 3.944480e-06
-3.463558e-05 3.459271e-12 -1.294118e-08
-3.555129e-05 2.307639e-12 2.547847e-06
-3.583329e-05 2.036107e-12 -5.391187e-06
-4.367467e-05 5.207977e-13 2.362968e-07
-3.021070e-05 2.188581e-13 7.428109e-06
-3.147596e-05 1.531511e-12 4.031007e-06
-2.433266e-05 2.201959e-12 -8.418080e-07
-2.447083e-05 1.570555e-12 2.250968e-06
-1.538077e-05 1.255414e-12 1.002925e-05
-1.501467e-05 2.686954e-12 1.098562e-05
-1.738120e-05 4.387214e-12 3.116092e-06
-2.458269e-05 4.149922e-12 -4.399292e-06
-2.679368e-05 2.499056e-12 3.642916e-06
-1.967530e-05 3.336997e-12 8.020268e-06
-2.440432e-05 6.024633e-12 -2.932027e-06
-8.598440e-06 6.503775e-12 8.085669e-06
-2.540300e-05 9.306669e-12 -8.796130e-07
-3.272054e-05 9.339666e-12 -7.671003e-06
-2.781838e-05 7.603519e-12 -5.076078e-06
-2.563121e-05 6.653764e-12 -1.781362e-07
-2.638844e-05 7.235691e-12 5.658036e-06
-2.553546e-05 8.576262e-12 1.425585e-06
-3.134790e-05 7.677274e-12 1.903276e-06
-3.991754e-05 6.013534e-12 -2.689910e-07
-4.234362e-05 4.354980e-12 -5.546695e-06
-3.881527e-05 2.043137e-12 2.423812e-06
-4.881551e-05 2.071736e-12 9.745457e-06
-5.683908e-05 3.729811e-12 1.263734e-06
-6.204137e-05 3.300432e-12 -4.805012e-06
-6.932509e-05 1.535152e-12 -4.924950e-06
-6.266509e-05 5.915381e-13 -1.463407e-06
-7.586644e-05 1.604556e-12 -6.491752e-08
-7.003567e-05 3.369155e-12 -1.213066e-06
-6.036248e-05 4.200262e-12 2.023917e-06
-4.912398e-05 4.676854e-12 2.523196e-06
-2.302500e-05 4.676558e-12 2.493211e-06
-2.627253e-06 4.486242e-12 5.819541e-06
1.037647e-06 5.143129e-12 3.024498e-06
-2.406278e-06 5.113208e-12 -4.379404e-06
7.840212e-06 3.179461e-12 -7.522467e-06
1.814251e-05 7.729480e-13 2.398868e-06
3.436800e-05 1.524911e-12 1.528178e-06
5.071697e-05 2.663047e-12 5.528419e-06
4.787864e-05 4.438275e-12 -4.552292e-06
6.046085e-05 3.002755e-12 -5.825795e-06
6.223359e-05 8.684708e-13 -1.456571e-05
7.447682e-05 -3.015865e-12 2.552439e-06
6.700207e-05 -1.951669e-12 -6.871082e-06
4.876034e-05 -2.416280e-12 -4.804852e-06
3.676427e-05 -2.849962e-12 -3.775119e-06
4.765952e-05 -3.817009e-12 4.596148e-06
3.950783e-05 -3.042589e-12 3.697917e-06
4.918740e-05 -2.658106e-12 1.496001e-06
4.521749e-05 -2.853276e-12 7.378318e-07
3.921247e-05 -3.570341e-12 4.010764e-06
2.837841e-05 -3.747122e-12 3.703264e-06
2.031858e-05 -3.960849e-12 5.666328e-06
1.319886e-05 -3.163551e-12 1.079892e-05
1.731952e-05 -1.165233e-12 -3.737914e-08
1.546473e-05 -1.719104e-12 1.439486e-06
9.477568e-06 -2.054820e-12 8.579653e-06
-1.902005e-05 -4.444557e-13 1.261050e-05
-7.537963e-05 2.246308e-12 3.778818e-06
-7.229465e-05 2.849686e-12 -1.143365e-06
-6.240708e-05 2.560069e-12 1.148528e-05
-1.092389e-04 5.357946e-12 9.185332e-06
-1.886293e-04 7.593503e-12 -2.252126e-06
-2.631218e-04 7.235695e-12 -9.718074e-07
-2.664143e-04 7.356247e-12 -8.531268e-06
-1.842517e-05 5.891488e-12 -8.047019e-06
2.337529e-04 5.459696e-12 -6.991007e-06
3.664786e-04 6.001407e-12 -5.349471e-06
3.672051e-04 6.647531e-12 1.898928e-06
3.739317e-04 7.451097e-12 7.301813e-06
3.683034e-04 8.496492e-12 -2.580128e-06
3.423490e-04 6.728593e-12 5.934010e-07
2.707400e-04 5.305403e-12 -6.943623e-06
1.526576e-04 1.968970e-12 -1.357825e-05
3.268452e-05 -1.868907e-12 -1.193441e-05
-6.798610e-06 -4.466245e-12 -6.432733e-06
-1.856694e-05 -5.328682e-12 4.601760e-06
-5.047235e-05 -4.059255e-12 1.353266e-06
-9.264133e-05 -3.970172e-12 2.580399e-06
-1.028889e-04 -4.402599e-12 -3.414110e-06
-8.820429e-05 -6.489924e-12 -2.337414e-06
-6.963987e-05 -8.057174e-12 -4.890961e-06
-1.039504e-04 -9.478353e-12 6.111754e-06
-1.230520e-04 -8.257425e-12 7.889472e-06
-1.003050e-04 -6.573375e-12 6.636881e-06
-8.768878e-05 -4.949701e-12 -6.229659e-06
-8.484302e-05 -6.358757e-12 -6.946793e-07
-9.541696e-05 -6.390601e-12 4.304641e-06
-7.743237e-05 -5.101664e-12 2.936462e-06
-6.285254e-05 -3.665864e-12 1.463296e-06
-6.929289e-05 -2.725682e-12 -2.160797e-07
-9.806473e-05 -2.046421e-12 -1.139368e-05
-8.201715e-05 -3.579819e-12 -7.856462e-06
-5.610907e-05 -3.440071e-12 -4.387408e-07
-4.915744e-05 -1.667516e-12 5.384277e-07
-5.603179e-05 -1.777229e-13 -4.488520e-06
-5.175097e-05 -1.269067e-12 -1.212790e-05
-4.706527e-05 -4.324214e-12 -5.969008e-06
-4.242440e-05 -5.550196e-12 -1.478338e-06
-4.590221e-05 -4.948762e-12 -5.653797e-06
-4.436079e-05 -5.533916e-12 8.121627e-07
-4.560705e-05 -5.096031e-12 -2.757545e-06
-4.170276e-05 -6.311188e-12 -4.264014e-06
-5.072619e-05 -7.698950e-12 -3.140732e-06
-4.713096e-05 -8.238504e-12 1.309127e-07
-3.182614e-05 -7.476330e-12 8.231480e-06
-3.683093e-05 -5.480187e-12 -1.526138e-06
-2.678948e-05 -6.584218e-12 -2.578256e-06
-1.652344e-05 -7.795350e-12 -7.094895e-06
-3.455118e-05 -8.931028e-12 3.707676e-07
-3.767176e-05 -7.592057e-12 -1.117784e-06
-3.696279e-05 -6.295022e-12 3.969705e-06
-2.918094e-05 -4.031137e-12 6.545404e-06
-2.023312e-05 -1.869609e-12 -3.605409e-06
-9.245836e-06 -1.980589e-12 -8.748275e-06
2.339905e-06 -2.572257e-12 -2.527004e-06
-1.469665e-05 -1.006373e-12 -2.993791e-06
-2.716730e-05 -1.104748e-13 -5.503498e-06
-3.549220e-05 -2.939768e-13 -1.292909e-05
-2.359442e-05 -2.849993e-12 -6.868269e-06
-8.788699e-06 -3.874047e-12 4.906936e-07
-8.124972e-06 -2.993902e-12 -6.388111e-06
-1.947311e-05 -3.287392e-12 -8.767168e-06
-3.506510e-05 -4.871510e-12 -8.962124e-06
-2.447782e-05 -7.250127e-12 -5.736572e-06
-1.617801e-05 -9.165654e-12 -4.785375e-06
-1.347418e-05 -9.866586e-12 -9.993940e-06
-1.469747e-05 -1.126084e-11 -6.227784e-06
-9.071533e-06 -1.207457e-11 1.072428e-06
8.896642e-06 -1.223210e-11 2.434274e-06
-9.436171e-06 -1.256850e-11 6.594428e-06
-1.331365e-05 -1.206166e-11 1.185357e-06
3.459758e-06 -1.266174e-11 1.032208e-05
9.634167e-06 -1.110109e-11 5.502783e-06
1.390347e-05 -1.040123e-11 -1.580075e-06
1.538224e-05 -1.086206e-11 8.297165e-06
3.270414e-05 -8.759530e-12 1.562753e-05
1.803165e-05 -4.496490e-12 -1.813968e-06
2.457973e-05 -3.623801e-12 2.447361e-06
3.224950e-05 -8.096105e-13 -1.195158e-07
5.288247e-05 1.185087e-12 1.581680e-06
6.015029e-05 3.223277e-12 -1.232934e-06
6.074378e-05 4.180049e-12 7.041659e-06
7.001412e-05 7.029399e-12 5.823934e-06
8.422979e-05 9.538101e-12 -5.078061e-06
8.831412e-05 9.773255e-12 1.670543e-06
9.172337e-05 1.128497e-11 5.491324e-07
1.048523e-04 1.222417e-11 4.908018e-06
1.084793e-04 1.323846e-11 -3.232034e-06
1.072371e-04 1.202591e-11 -2.991696e-06
1.064962e-04 1.066975e-11 8.341394e-07
1.202355e-04 1.006920e-11 1.074679e-05
1.147159e-04 1.150803e-11 2.355311e-06
1.105394e-04 1.108813e-11 -3.020481e-06
1.189751e-04 9.068589e-12 4.313473e-06
1.074138e-04 8.158253e-12 8.352220e-06
1.089939e-04 8.104053e-12 1.346286e-05
1.001786e-04 9.692036e-12 8.383573e-06
1.022563e-04 1.025664e-11 1.010335e-05
1.132809e-04 1.046243e-11 1.712016e-05
1.009551e-04 1.197601e-11 8.500318e-06
8.467427e-05 1.194555e-11 1.210009e-05
8.106180e-05 1.377234e-11 4.751367e-06
8.123301e-05 1.440358e-11 1.208478e-05
6.568305e-05 1.724256e-11 1.207556e-05
7.087512e-05 1.985196e-11 1.428546e-05
6.747544e-05 2.270119e-11 8.458716e-06
