1.603312e-03 0.000000e+00 -2.193411e-03
1.581617e-03 3.856809e-06 -2.184997e-03
1.535875e-03 1.142212e-05 -2.208364e-03
1.523356e-03 2.259501e-05 -2.219423e-03
1.546979e-03 3.748528e-05 -2.201104e-03
1.540741e-03 5.622375e-05 -2.193988e-03
1.471407e-03 7.853463e-05 -2.225385e-03
1.438587e-03 1.038062e-04 -2.235145e-03
1.437093e-03 1.322252e-04 -2.211730e-03
1.391329e-03 1.638059e-04 -2.197450e-03
1.324529e-03 1.975260e-04 -2.210095e-03
1.305429e-03 2.330687e-04 -2.221923e-03
1.307113e-03 2.715328e-04 -2.209758e-03
1.268973e-03 3.129910e-04 -2.189468e-03
1.177353e-03 3.558563e-04 -2.213364e-03
1.135337e-03 3.990258e-04 -2.232741e-03
1.122683e-03 4.439434e-04 -2.215336e-03
1.096150e-03 4.906699e-04 -2.193796e-03
9.936400e-04 5.383670e-04 -2.197450e-03
9.253814e-04 5.840756e-04 -2.218076e-03
9.215075e-04 6.294915e-04 -2.208604e-03
9.067346e-04 6.766714e-04 -2.180669e-03
8.151102e-04 7.243978e-04 -2.196921e-03
7.501698e-04 7.697212e-04 -2.220673e-03
7.497525e-04 8.140365e-04 -2.214470e-03
7.244768e-04 8.599392e-04 -2.197642e-03
6.525472e-04 9.054718e-04 -2.201008e-03
5.811972e-04 9.481658e-04 -2.222211e-03
5.681631e-04 9.883659e-04 -2.218894e-03
5.521211e-04 1.028929e-03 -2.198123e-03
5.127640e-04 1.068911e-03 -2.189997e-03
4.565387e-04 1.106962e-03 -2.209855e-03
3.984319e-04 1.142663e-03 -2.231010e-03
4.113351e-04 1.175629e-03 -2.211057e-03
3.693024e-04 1.209825e-03 -2.204181e-03
3.159381e-04 1.241168e-03 -2.220336e-03
2.776637e-04 1.269393e-03 -2.222885e-03
2.787203e-04 1.295022e-03 -2.214230e-03
2.659635e-04 1.321049e-03 -2.200671e-03
2.238653e-04 1.345982e-03 -2.199613e-03
1.845323e-04 1.367429e-03 -2.224712e-03
2.029718e-04 1.386540e-03 -2.214422e-03
2.004934e-04 1.407531e-03 -2.192449e-03
1.414422e-04 1.427828e-03 -2.204998e-03
1.098422e-04 1.442840e-03 -2.223990e-03
1.358527e-04 1.455535e-03 -2.203652e-03
1.336582e-04 1.470519e-03 -2.201104e-03
1.089351e-04 1.485482e-03 -2.199950e-03
5.511960e-05 1.497851e-03 -2.220000e-03
6.828571e-05 1.504927e-03 -2.214615e-03
7.901206e-05 1.513481e-03 -2.205912e-03
5.717726e-05 1.523152e-03 -2.206248e-03
2.413379e-05 1.530279e-03 -2.221923e-03
3.920833e-05 1.533957e-03 -2.218557e-03
5.309071e-05 1.539499e-03 -2.201441e-03
5.120422e-05 1.546242e-03 -2.194757e-03
1.033065e-05 1.552593e-03 -2.215865e-03
1.301773e-05 1.554329e-03 -2.222163e-03
5.010363e-05 1.556718e-03 -2.207931e-03
4.717247e-05 1.563833e-03 -2.205191e-03
5.466183e-06 1.570536e-03 -2.214903e-03
-2.222045e-05 1.571585e-03 -2.230481e-03
2.857234e-05 1.569114e-03 -2.209566e-03
4.549538e-05 1.573443e-03 -2.189516e-03
2.195827e-06 1.579624e-03 -2.202210e-03
-9.056928e-07 1.579648e-03 -2.225337e-03
2.841613e-05 1.580185e-03 -2.218317e-03
4.112748e-05 1.585168e-03 -2.197402e-03
-6.804966e-06 1.591413e-03 -2.209085e-03
-3.557927e-05 1.590233e-03 -2.217163e-03
7.879955e-06 1.584469e-03 -2.206729e-03
2.957050e-05 1.585666e-03 -2.193267e-03
1.031178e-05 1.590115e-03 -2.195238e-03
-1.913497e-05 1.591338e-03 -2.222788e-03
-9.021960e-07 1.588491e-03 -2.214134e-03
2.768108e-05 1.588517e-03 -2.192065e-03
9.573235e-06 1.592873e-03 -2.198411e-03
-1.836418e-05 1.594221e-03 -2.217740e-03
-9.225575e-06 1.591142e-03 -2.217836e-03
2.601632e-05 1.589749e-03 -2.189372e-03
1.200266e-05 1.593953e-03 -2.194372e-03
-1.702819e-05 1.595722e-03 -2.214134e-03
-1.632490e-07 1.592609e-03 -2.221202e-03
1.977858e-05 1.593149e-03 -2.207162e-03
1.178283e-06 1.597133e-03 -2.195959e-03
-3.247600e-05 1.596842e-03 -2.218942e-03
-3.231885e-05 1.590531e-03 -2.234136e-03
2.154331e-05 1.584798e-03 -2.212884e-03
3.768790e-05 1.589568e-03 -2.198171e-03
6.383623e-06 1.597264e-03 -2.199565e-03
-1.669628e-05 1.598275e-03 -2.227933e-03
1.861924e-05 1.595415e-03 -2.211826e-03
1.468196e-05 1.599688e-03 -2.197353e-03
-2.475524e-05 1.602488e-03 -2.209951e-03
-3.211763e-05 1.596869e-03 -2.229808e-03
1.778538e-05 1.590335e-03 -2.226491e-03
3.079551e-05 1.595210e-03 -2.198748e-03
-4.195756e-06 1.601978e-03 -2.199421e-03
-2.735657e-05 1.600522e-03 -2.228318e-03
9.014700e-06 1.594729e-03 -2.215047e-03
2.187301e-05 1.597113e-03 -2.187209e-03
-5.555918e-06 1.601415e-03 -2.200238e-03
-3.581449e-05 1.599651e-03 -2.219519e-03
-7.808245e-06 1.591358e-03 -2.218461e-03
1.916936e-05 1.589816e-03 -2.194372e-03
6.012875e-06 1.593789e-03 -2.196873e-03
-2.096652e-05 1.594709e-03 -2.217932e-03
-5.476842e-06 1.589989e-03 -2.223269e-03
9.878484e-07 1.589246e-03 -2.201873e-03
-2.100020e-05 1.589116e-03 -2.194517e-03
-5.522049e-05 1.583333e-03 -2.215768e-03
-3.959742e-05 1.570162e-03 -2.226731e-03
-1.554061e-05 1.561252e-03 -2.216874e-03
-4.381047e-06 1.557737e-03 -2.201008e-03
-4.334304e-05 1.556262e-03 -2.211585e-03
-5.366710e-05 1.545767e-03 -2.233991e-03
-6.267577e-06 1.533708e-03 -2.221442e-03
1.461726e-06 1.532613e-03 -2.199036e-03
-2.921171e-05 1.532419e-03 -2.215191e-03
-3.582755e-05 1.525476e-03 -2.233174e-03
2.577046e-05 1.517681e-03 -2.222548e-03
3.971876e-05 1.524407e-03 -2.197642e-03
6.782108e-06 1.533447e-03 -2.206008e-03
1.629713e-06 1.534849e-03 -2.219567e-03
3.541276e-05 1.535588e-03 -2.211634e-03
5.868010e-05 1.544199e-03 -2.195863e-03
2.733040e-05 1.557807e-03 -2.197882e-03
9.227045e-06 1.563890e-03 -2.216345e-03
5.063674e-05 1.566378e-03 -2.224567e-03
7.736923e-05 1.579313e-03 -2.200383e-03
4.364592e-05 1.597698e-03 -2.194324e-03
-8.394336e-06 1.607619e-03 -2.216826e-03
2.660900e-06 1.605843e-03 -2.224183e-03
3.726411e-05 1.607061e-03 -2.201825e-03
1.941388e-05 1.615727e-03 -2.200287e-03
-1.134816e-05 1.619997e-03 -2.215913e-03
-9.442128e-06 1.617466e-03 -2.230241e-03
3.346844e-05 1.616002e-03 -2.212691e-03
4.309926e-05 1.624209e-03 -2.193315e-03
-1.293211e-05 1.633938e-03 -2.214663e-03
-3.697105e-05 1.630955e-03 -2.239376e-03
9.966911e-06 1.623155e-03 -2.222163e-03
2.432459e-05 1.626010e-03 -2.198652e-03
-1.552860e-05 1.631342e-03 -2.209855e-03
-3.251460e-05 1.627461e-03 -2.230770e-03
1.043062e-05 1.620335e-03 -2.218653e-03
-1.082633e-05 1.623129e-03 -2.206297e-03
-1.045220e-04 1.620182e-03 -2.209422e-03
-1.422517e-04 1.594493e-03 -2.221442e-03
-7.310351e-05 1.560108e-03 -2.210384e-03
-6.044538e-05 1.542112e-03 -2.201777e-03
-1.783600e-04 1.526842e-03 -2.194949e-03
-2.737355e-04 1.482494e-03 -2.213364e-03
-2.038761e-04 1.415663e-03 -2.229231e-03
7.460786e-05 1.366574e-03 -2.209133e-03
3.839602e-04 1.384655e-03 -2.185189e-03
4.672324e-04 1.477311e-03 -2.203123e-03
3.940448e-04 1.591127e-03 -2.221923e-03
3.766788e-04 1.687875e-03 -2.198940e-03
3.096868e-04 1.779340e-03 -2.188122e-03
1.519419e-04 1.854001e-03 -2.212403e-03
1.642961e-05 1.891235e-03 -2.233607e-03
-5.727071e-05 1.896276e-03 -2.213509e-03
-1.140787e-04 1.882405e-03 -2.203604e-03
-1.751869e-04 1.854226e-03 -2.215240e-03
-1.781630e-04 1.811622e-03 -2.222885e-03
-1.333739e-04 1.768612e-03 -2.219663e-03
-9.936317e-05 1.736380e-03 -2.205527e-03
-1.113099e-04 1.711833e-03 -2.209181e-03
-1.087458e-04 1.684555e-03 -2.241492e-03
-5.992566e-05 1.659295e-03 -2.227452e-03
-3.390049e-05 1.645289e-03 -2.206489e-03
-4.984452e-05 1.636713e-03 -2.209903e-03
-6.167114e-05 1.624402e-03 -2.229568e-03
-2.842487e-05 1.610052e-03 -2.207883e-03
-3.190250e-06 1.602848e-03 -2.191680e-03
3.105969e-06 1.601119e-03 -2.196728e-03
-3.639669e-05 1.601196e-03 -2.223077e-03
-2.466771e-05 1.592784e-03 -2.222500e-03
1.689770e-05 1.587183e-03 -2.196248e-03
-1.654250e-06 1.590589e-03 -2.196728e-03
-3.582675e-05 1.589519e-03 -2.218894e-03
-2.142763e-05 1.581082e-03 -2.232982e-03
2.237397e-05 1.576755e-03 -2.202835e-03
1.872978e-05 1.581793e-03 -2.188603e-03
-2.790459e-05 1.585347e-03 -2.219038e-03
-1.651389e-05 1.578861e-03 -2.230049e-03
1.610504e-05 1.575619e-03 -2.214182e-03
1.959482e-05 1.579630e-03 -2.201825e-03
-1.180731e-05 1.583962e-03 -2.209470e-03
-3.569215e-05 1.580970e-03 -2.227741e-03
3.604818e-06 1.572926e-03 -2.222548e-03
1.700601e-05 1.574237e-03 -2.200623e-03
-1.518023e-05 1.577863e-03 -2.198844e-03
-3.415126e-05 1.573563e-03 -2.224664e-03
3.507105e-06 1.565763e-03 -2.214951e-03
1.495313e-05 1.566722e-03 -2.207451e-03
-1.107916e-05 1.570156e-03 -2.205239e-03
-3.436673e-05 1.567144e-03 -2.222356e-03
1.911132e-06 1.559186e-03 -2.216249e-03
2.998998e-05 1.559811e-03 -2.197209e-03
7.939626e-06 1.566475e-03 -2.198459e-03
-4.924019e-05 1.567833e-03 -2.217115e-03
-2.523061e-05 1.556036e-03 -2.220096e-03
1.808578e-05 1.550223e-03 -2.204085e-03
3.043230e-07 1.554302e-03 -2.194901e-03
-4.227252e-05 1.553654e-03 -2.210720e-03
-2.336581e-05 1.543305e-03 -2.229376e-03
2.021122e-05 1.538385e-03 -2.213653e-03
-2.704970e-06 1.543415e-03 -2.193170e-03
-4.081314e-05 1.541952e-03 -2.208316e-03
-3.177340e-05 1.531855e-03 -2.230914e-03
3.976309e-06 1.524954e-03 -2.218557e-03
-2.585226e-06 1.526226e-03 -2.202594e-03
-5.650372e-05 1.525189e-03 -2.224375e-03
-5.473269e-05 1.511926e-03 -2.234568e-03
1.277676e-05 1.499517e-03 -2.216345e-03
1.796776e-05 1.502789e-03 -2.205672e-03
-3.169160e-05 1.506868e-03 -2.206729e-03
-4.396806e-05 1.498853e-03 -2.227933e-03
1.468165e-05 1.488765e-03 -2.214086e-03
1.860567e-05 1.492390e-03 -2.199517e-03
-1.563646e-05 1.496341e-03 -2.206537e-03
-2.586767e-05 1.492245e-03 -2.221634e-03
-4.924402e-06 1.486302e-03 -2.227068e-03
2.206831e-05 1.485707e-03 -2.199998e-03
1.095902e-05 1.490517e-03 -2.197402e-03
-1.412279e-05 1.492520e-03 -2.216009e-03
-6.934535e-06 1.489227e-03 -2.208124e-03
3.534054e-05 1.487339e-03 -2.187160e-03
2.390031e-05 1.494885e-03 -2.196055e-03
1.942130e-06 1.500063e-03 -2.219711e-03
2.584047e-05 1.500927e-03 -2.226635e-03
6.341158e-05 1.507926e-03 -2.196440e-03
5.408427e-05 1.522783e-03 -2.186583e-03
1.527601e-05 1.534954e-03 -2.210191e-03
3.720204e-05 1.538703e-03 -2.220721e-03
7.485143e-05 1.548270e-03 -2.211874e-03
5.686226e-05 1.566644e-03 -2.193603e-03
4.829540e-06 1.579826e-03 -2.206152e-03
9.853111e-06 1.580861e-03 -2.219519e-03
4.253288e-05 1.583713e-03 -2.209278e-03
4.801733e-05 1.594096e-03 -2.190286e-03
1.216389e-05 1.604995e-03 -2.206152e-03
3.151017e-07 1.607853e-03 -2.228414e-03
3.072792e-05 1.608789e-03 -2.218076e-03
4.952150e-05 1.616680e-03 -2.194517e-03
1.436941e-05 1.628129e-03 -2.205527e-03
-2.178451e-05 1.631491e-03 -2.218413e-03
1.014306e-05 1.626585e-03 -2.215288e-03
3.172649e-05 1.629331e-03 -2.191392e-03
8.019002e-06 1.636306e-03 -2.200575e-03
-3.153012e-05 1.637919e-03 -2.227452e-03
-3.018193e-06 1.631043e-03 -2.214374e-03
1.782584e-05 1.630538e-03 -2.190382e-03
2.985499e-06 1.634080e-03 -2.181583e-03
-3.071743e-05 1.633644e-03 -2.206922e-03
-1.679930e-05 1.626121e-03 -2.225144e-03
8.017560e-06 1.622796e-03 -2.199854e-03
1.645278e-05 1.624410e-03 -2.187497e-03
-1.448845e-05 1.627560e-03 -2.209518e-03
-1.048965e-05 1.624139e-03 -2.213990e-03
1.748195e-05 1.621891e-03 -2.201681e-03
2.367919e-05 1.625935e-03 -2.193267e-03
-2.859227e-05 1.631134e-03 -2.201681e-03
-3.958885e-05 1.623957e-03 -2.223558e-03
4.940155e-06 1.615056e-03 -2.213028e-03
2.873782e-05 1.616549e-03 -2.190286e-03
-6.320304e-06 1.622854e-03 -2.197209e-03
-3.054492e-05 1.620923e-03 -2.221634e-03
4.394457e-06 1.614159e-03 -2.215047e-03
1.774445e-05 1.615618e-03 -2.192545e-03
-8.914886e-06 1.619343e-03 -2.201633e-03
-1.799242e-05 1.616976e-03 -2.227645e-03
1.492218e-05 1.613536e-03 -2.227356e-03
2.739523e-05 1.618084e-03 -2.193122e-03
6.756755e-06 1.624153e-03 -2.194853e-03
-9.514143e-06 1.625279e-03 -2.229328e-03
-2.063824e-05 1.623950e-03 -2.231924e-03
9.775034e-06 1.619981e-03 -2.183650e-03
2.134690e-05 1.621295e-03 -2.169995e-03
-1.305203e-05 1.624874e-03 -2.200719e-03
-1.131736e-05 1.621456e-03 -2.222308e-03
3.125468e-05 1.619417e-03 -2.190574e-03
1.079817e-05 1.626363e-03 -2.188026e-03
-2.693533e-05 1.628227e-03 -2.212355e-03
-1.418920e-05 1.621972e-03 -2.225289e-03
3.071100e-05 1.619384e-03 -2.203700e-03
2.754568e-05 1.626780e-03 -2.184179e-03
9.519147e-07 1.632555e-03 -2.205191e-03
-7.696938e-06 1.632790e-03 -2.228991e-03
2.448796e-05 1.631953e-03 -2.210576e-03
2.465597e-05 1.638132e-03 -2.193507e-03
-1.014261e-05 1.643602e-03 -2.204277e-03
-2.381191e-05 1.641067e-03 -2.220384e-03
1.140061e-05 1.635905e-03 -2.210143e-03
3.849143e-05 1.638866e-03 -2.191872e-03
-3.301516e-06 1.647627e-03 -2.193555e-03
-2.095525e-05 1.646288e-03 -2.215865e-03
2.494635e-05 1.641640e-03 -2.215191e-03
3.296376e-05 1.648143e-03 -2.200383e-03
-2.240030e-06 1.655941e-03 -2.197402e-03
-3.705075e-05 1.655027e-03 -2.208941e-03
-1.960680e-06 1.646142e-03 -2.208412e-03
4.103881e-05 1.645790e-03 -2.195430e-03
2.541686e-05 1.655353e-03 -2.195959e-03
-3.955619e-05 1.661139e-03 -2.209374e-03
-2.269903e-05 1.651686e-03 -2.218365e-03
2.240002e-05 1.646735e-03 -2.198027e-03
1.447171e-05 1.651874e-03 -2.189228e-03
-1.869574e-05 1.654703e-03 -2.203893e-03
-2.559272e-06 1.650105e-03 -2.209710e-03
1.423472e-05 1.649707e-03 -2.209518e-03
2.459280e-05 1.653389e-03 -2.186535e-03
-2.603382e-05 1.658579e-03 -2.214951e-03
-2.309128e-05 1.652703e-03 -2.241396e-03
3.098393e-05 1.648680e-03 -2.207306e-03
4.207993e-05 1.656288e-03 -2.189564e-03
-7.933271e-06 1.665817e-03 -2.203268e-03
-1.806203e-05 1.663781e-03 -2.224616e-03
1.179890e-05 1.660221e-03 -2.222981e-03
1.866504e-05 1.663836e-03 -2.199661e-03
-1.648377e-05 1.668069e-03 -2.193555e-03
-3.035809e-05 1.663480e-03 -2.220673e-03
1.727658e-05 1.656714e-03 -2.218413e-03
3.409746e-05 1.661434e-03 -2.188026e-03
-5.717726e-08 1.668903e-03 -2.188603e-03
-2.661383e-05 1.668102e-03 -2.214951e-03
8.228086e-06 1.662013e-03 -2.210720e-03
3.342556e-05 1.664221e-03 -2.192978e-03
2.497823e-06 1.671781e-03 -2.187641e-03
-1.913378e-05 1.671585e-03 -2.204950e-03
3.526939e-06 1.666906e-03 -2.217548e-03
2.635654e-05 1.668309e-03 -2.199277e-03
2.246971e-05 1.674456e-03 -2.178987e-03
-3.276560e-05 1.678774e-03 -2.206922e-03
-1.936686e-05 1.670904e-03 -2.214903e-03
2.859130e-05 1.666652e-03 -2.201825e-03
2.323970e-05 1.673493e-03 -2.187689e-03
-1.922890e-05 1.678411e-03 -2.197738e-03
-2.956438e-05 1.673456e-03 -2.217836e-03
2.369369e-05 1.666885e-03 -2.204566e-03
2.693185e-05 1.672686e-03 -2.196055e-03
-8.844910e-06 1.678893e-03 -2.203364e-03
-2.349500e-05 1.676715e-03 -2.224183e-03
8.090804e-08 1.671891e-03 -2.216057e-03
1.540631e-05 1.672432e-03 -2.190959e-03
-5.100836e-06 1.675582e-03 -2.200719e-03
-1.110035e-05 1.674177e-03 -2.221923e-03
-1.567615e-06 1.672241e-03 -2.206633e-03
2.084264e-05 1.671948e-03 -2.186920e-03
-8.872124e-08 1.676244e-03 -2.195959e-03
-2.960328e-05 1.675851e-03 -2.217451e-03
3.167617e-06 1.669236e-03 -2.216874e-03
2.823863e-05 1.670562e-03 -2.196248e-03
2.546332e-06 1.677070e-03 -2.188026e-03
-2.653643e-05 1.676967e-03 -2.215384e-03
-1.402858e-05 1.670999e-03 -2.216153e-03
1.632028e-05 1.668104e-03 -2.183891e-03
-5.215949e-06 1.671177e-03 -2.182352e-03
-4.064796e-05 1.668962e-03 -2.199181e-03
-1.457114e-05 1.658896e-03 -2.214663e-03
-1.462092e-07 1.655866e-03 -2.193074e-03
-2.535675e-05 1.655402e-03 -2.189997e-03
-5.079985e-05 1.648679e-03 -2.202065e-03
-5.121547e-05 1.636304e-03 -2.220817e-03
-6.158529e-06 1.624664e-03 -2.215240e-03
6.421454e-06 1.623720e-03 -2.203460e-03
-2.096592e-05 1.625287e-03 -2.206633e-03
-3.051323e-05 1.620314e-03 -2.222836e-03
1.987140e-06 1.613730e-03 -2.212355e-03
3.311093e-05 1.614580e-03 -2.193555e-03
1.446072e-06 1.622156e-03 -2.199854e-03
-1.798029e-05 1.622301e-03 -2.222308e-03
2.109537e-05 1.618710e-03 -2.211105e-03
4.578193e-05 1.624122e-03 -2.192257e-03
2.476866e-05 1.634701e-03 -2.198940e-03
3.097980e-06 1.640458e-03 -2.218076e-03
4.787775e-05 1.641787e-03 -2.216971e-03
6.388674e-05 1.653954e-03 -2.196248e-03
4.230318e-05 1.669095e-03 -2.188218e-03
1.108250e-05 1.678631e-03 -2.209566e-03
2.516443e-05 1.681522e-03 -2.215528e-03
6.487621e-05 1.688112e-03 -2.191824e-03
4.799380e-05 1.703311e-03 -2.185093e-03
1.470796e-06 1.714110e-03 -2.202210e-03
-9.507881e-06 1.714367e-03 -2.213364e-03
1.623467e-05 1.712472e-03 -2.203412e-03
1.855638e-05 1.716402e-03 -2.188507e-03
-2.277345e-05 1.720227e-03 -2.206825e-03
-2.028123e-05 1.714803e-03 -2.205575e-03
1.365806e-05 1.709953e-03 -2.200719e-03
3.203923e-05 1.713160e-03 -2.195286e-03
-5.668272e-06 1.720576e-03 -2.186776e-03
-2.783303e-05 1.718460e-03 -2.206633e-03
1.341955e-05 1.711873e-03 -2.209999e-03
1.256365e-05 1.715470e-03 -2.193315e-03
-6.465549e-05 1.718115e-03 -2.195671e-03
-1.442780e-04 1.702105e-03 -2.224135e-03
-7.305717e-05 1.668003e-03 -2.209422e-03
-1.829170e-05 1.650549e-03 -2.170909e-03
-1.158332e-04 1.644715e-03 -2.181391e-03
-2.137884e-04 1.615688e-03 -2.216971e-03
-2.267452e-04 1.564457e-03 -2.222163e-03
-8.700671e-05 1.510303e-03 -2.200287e-03
2.090237e-04 1.489104e-03 -2.192449e-03
3.623196e-04 1.539431e-03 -2.206489e-03
3.714171e-04 1.627602e-03 -2.212499e-03
3.087456e-04 1.718256e-03 -2.196392e-03
2.897983e-04 1.792978e-03 -2.179756e-03
2.126269e-04 1.862360e-03 -2.200719e-03
1.275197e-04 1.913955e-03 -2.218798e-03
4.137332e-05 1.945674e-03 -2.201441e-03
-4.786352e-05 1.955721e-03 -2.184564e-03
-1.188015e-04 1.943334e-03 -2.203171e-03
-1.588039e-04 1.914533e-03 -2.218413e-03
-1.158074e-04 1.876729e-03 -2.199421e-03
-1.155057e-04 1.848540e-03 -2.187064e-03
-1.347806e-04 1.819879e-03 -2.202402e-03
-1.313422e-04 1.787206e-03 -2.221923e-03
-8.958658e-05 1.756221e-03 -2.211778e-03
-4.376847e-05 1.734924e-03 -2.194132e-03
-6.578773e-05 1.723960e-03 -2.195575e-03
-8.703071e-05 1.707700e-03 -2.218798e-03
-3.389768e-05 1.687310e-03 -2.217403e-03
1.113453e-06 1.679753e-03 -2.193026e-03
-2.157850e-05 1.679607e-03 -2.200719e-03
-6.196934e-05 1.674272e-03 -2.223606e-03
-1.657130e-05 1.660127e-03 -2.218413e-03
1.376393e-05 1.656765e-03 -2.196873e-03
-1.490650e-05 1.659808e-03 -2.195334e-03
-4.667642e-05 1.655805e-03 -2.211682e-03
-1.311877e-05 1.644799e-03 -2.204710e-03
2.075404e-05 1.641649e-03 -2.191440e-03
8.602724e-06 1.646155e-03 -2.187449e-03
-3.210131e-05 1.647529e-03 -2.205864e-03
-1.748438e-05 1.639836e-03 -2.218750e-03
1.367949e-05 1.636271e-03 -2.201488e-03
2.890514e-06 1.639511e-03 -2.193555e-03
-2.520730e-05 1.639770e-03 -2.209037e-03
-2.767754e-05 1.633875e-03 -2.225289e-03
3.201534e-06 1.628093e-03 -2.202931e-03
4.922879e-06 1.628824e-03 -2.192545e-03
-2.152839e-05 1.629504e-03 -2.207979e-03
-1.986204e-05 1.624424e-03 -2.224808e-03
1.537666e-05 1.620486e-03 -2.214038e-03
2.700317e-05 1.624630e-03 -2.200238e-03
-1.433474e-05 1.630965e-03 -2.186295e-03
-5.361458e-05 1.626636e-03 -2.210384e-03
-1.073964e-05 1.613859e-03 -2.213845e-03
1.867301e-05 1.611660e-03 -2.190766e-03
-1.885384e-05 1.615579e-03 -2.190141e-03
-4.598505e-05 1.610351e-03 -2.217115e-03
-4.160497e-06 1.599731e-03 -2.210239e-03
1.846892e-05 1.598979e-03 -2.193844e-03
-1.075089e-05 1.603004e-03 -2.201729e-03
-4.272295e-05 1.600262e-03 -2.218509e-03
-1.664531e-05 1.590483e-03 -2.213941e-03
1.588995e-05 1.586845e-03 -2.194036e-03
-1.255175e-05 1.590237e-03 -2.188699e-03
-4.822135e-05 1.586479e-03 -2.211922e-03
-3.874548e-05 1.575080e-03 -2.222740e-03
6.313044e-06 1.566467e-03 -2.202306e-03
9.422839e-07 1.567896e-03 -2.198604e-03
-2.794482e-05 1.567838e-03 -2.210913e-03
-3.245480e-05 1.561289e-03 -2.215817e-03
-4.684128e-07 1.553872e-03 -2.203748e-03
-2.370737e-06 1.553707e-03 -2.195190e-03
-4.144804e-05 1.552685e-03 -2.211105e-03
-4.300884e-05 1.542850e-03 -2.236924e-03
6.802067e-06 1.533764e-03 -2.218173e-03
3.049244e-05 1.535941e-03 -2.190382e-03
-2.398017e-06 1.542627e-03 -2.200046e-03
-3.473194e-05 1.541737e-03 -2.225000e-03
1.276469e-06 1.534097e-03 -2.216249e-03
2.800438e-05 1.534823e-03 -2.201344e-03
-1.412404e-05 1.541371e-03 -2.202354e-03
-4.290657e-05 1.537700e-03 -2.223510e-03
3.418563e-06 1.527963e-03 -2.216730e-03
4.959570e-05 1.529194e-03 -2.198363e-03
2.204480e-05 1.540831e-03 -2.192978e-03
-3.225941e-05 1.545515e-03 -2.221106e-03
-5.609802e-06 1.538243e-03 -2.220721e-03
5.230872e-05 1.537444e-03 -2.188314e-03
5.752125e-05 1.549301e-03 -2.182689e-03
2.046384e-05 1.562173e-03 -2.206537e-03
3.130733e-05 1.567101e-03 -2.219856e-03
6.515064e-05 1.575279e-03 -2.192353e-03
4.119490e-05 1.590485e-03 -2.181439e-03
-6.750422e-08 1.599389e-03 -2.197642e-03
3.297631e-07 1.598991e-03 -2.213268e-03
4.236126e-05 1.599416e-03 -2.203171e-03
4.945378e-05 1.609632e-03 -2.190382e-03
1.135677e-05 1.620996e-03 -2.191199e-03
-8.282910e-06 1.623134e-03 -2.208653e-03
2.854966e-05 1.621304e-03 -2.201873e-03
3.765358e-05 1.628163e-03 -2.185622e-03
-1.379031e-06 1.636520e-03 -2.191103e-03
-2.452601e-05 1.635627e-03 -2.215047e-03
1.086553e-05 1.630189e-03 -2.200527e-03
3.182063e-05 1.632746e-03 -2.177304e-03
-8.783619e-07 1.639385e-03 -2.186920e-03
-2.446852e-05 1.638503e-03 -2.210335e-03
3.645642e-06 1.632938e-03 -2.203652e-03
2.100371e-05 1.633947e-03 -2.193988e-03
-2.003236e-07 1.638755e-03 -2.190382e-03
-3.554815e-05 1.638235e-03 -2.209133e-03
-1.304150e-05 1.629961e-03 -2.210624e-03
2.400226e-05 1.627247e-03 -2.187256e-03
9.792809e-06 1.632513e-03 -2.176006e-03
-3.258276e-05 1.633827e-03 -2.203123e-03
-1.783939e-05 1.626055e-03 -2.214567e-03
1.404102e-05 1.622399e-03 -2.191247e-03
1.457429e-05 1.625472e-03 -2.177784e-03
-1.634345e-05 1.628069e-03 -2.193411e-03
-7.463289e-06 1.623853e-03 -2.195815e-03
1.530934e-05 1.621948e-03 -2.196776e-03
1.324198e-05 1.625650e-03 -2.196055e-03
-1.783882e-05 1.628796e-03 -2.211441e-03
-3.004366e-05 1.625038e-03 -2.220433e-03
1.316072e-05 1.618711e-03 -2.198604e-03
1.278357e-05 1.621925e-03 -2.188987e-03
-2.168560e-05 1.624613e-03 -2.202017e-03
-3.361888e-05 1.619477e-03 -2.218365e-03
1.002571e-06 1.612165e-03 -2.211826e-03
2.619778e-05 1.612982e-03 -2.194901e-03
-3.813271e-06 1.619145e-03 -2.198700e-03
-3.157284e-05 1.618153e-03 -2.216730e-03
-1.328711e-05 1.611214e-03 -2.219663e-03
3.268317e-05 1.608853e-03 -2.190334e-03
2.144875e-05 1.616337e-03 -2.189564e-03
-7.046915e-06 1.621033e-03 -2.207451e-03
1.072883e-05 1.619604e-03 -2.210720e-03
2.166426e-05 1.622661e-03 -2.202883e-03
1.471695e-05 1.628021e-03 -2.194805e-03
-3.293707e-05 1.631296e-03 -2.217740e-03
-1.812936e-05 1.623989e-03 -2.213845e-03
3.079414e-05 1.620118e-03 -2.186824e-03
3.748017e-05 1.626943e-03 -2.166197e-03
-8.663172e-06 1.634477e-03 -2.196392e-03
-2.399108e-05 1.632159e-03 -2.209566e-03
1.494037e-05 1.626740e-03 -2.191007e-03
2.180333e-05 1.629974e-03 -2.187353e-03
-5.995847e-06 1.634695e-03 -2.193988e-03
-1.699459e-05 1.632952e-03 -2.215432e-03
2.596764e-05 1.629512e-03 -2.202979e-03
3.826994e-05 1.635961e-03 -2.183314e-03
-6.775864e-06 1.644514e-03 -2.195190e-03
-3.308586e-05 1.642648e-03 -2.215288e-03
-9.006948e-06 1.635302e-03 -2.210335e-03
2.082197e-05 1.633600e-03 -2.191824e-03
8.362308e-07 1.638296e-03 -2.196199e-03
-2.311481e-05 1.638303e-03 -2.220144e-03
9.661938e-06 1.633557e-03 -2.211874e-03
2.541203e-05 1.636414e-03 -2.193074e-03
3.131203e-06 1.642252e-03 -2.195046e-03
-2.500214e-05 1.642738e-03 -2.217596e-03
1.135931e-05 1.637389e-03 -2.220144e-03
3.267072e-05 1.640983e-03 -2.193315e-03
-2.849994e-07 1.648553e-03 -2.176631e-03
-4.516559e-05 1.647372e-03 -2.199421e-03
-9.887970e-06 1.636327e-03 -2.215288e-03
4.023400e-05 1.634574e-03 -2.197161e-03
1.101230e-05 1.644179e-03 -2.183698e-03
-2.531188e-05 1.646077e-03 -2.194469e-03
-8.779196e-06 1.639641e-03 -2.208316e-03
3.242555e-05 1.637863e-03 -2.189949e-03
2.509239e-05 1.645293e-03 -2.175669e-03
-2.131872e-05 1.650306e-03 -2.192786e-03
-3.136634e-05 1.644823e-03 -2.214422e-03
1.359322e-05 1.637896e-03 -2.201681e-03
2.439742e-05 1.641324e-03 -2.185814e-03
-1.544980e-05 1.646649e-03 -2.193651e-03
-1.567624e-05 1.642644e-03 -2.208508e-03
1.530349e-05 1.639263e-03 -2.199373e-03
3.222642e-05 1.643015e-03 -2.177640e-03
-3.369479e-06 1.649906e-03 -2.195238e-03
-2.403458e-05 1.648935e-03 -2.209518e-03
-1.823717e-06 1.643601e-03 -2.202162e-03
2.135218e-05 1.643359e-03 -2.194324e-03
-9.869986e-06 1.648377e-03 -2.193219e-03
-4.157243e-05 1.645749e-03 -2.211297e-03
-7.356610e-06 1.636248e-03 -2.220144e-03
3.086118e-05 1.635437e-03 -2.196873e-03
1.827169e-05 1.642833e-03 -2.187978e-03
-1.810026e-05 1.646750e-03 -2.206104e-03
-2.338185e-05 1.642657e-03 -2.215624e-03
1.668558e-05 1.637736e-03 -2.188218e-03
1.118659e-05 1.641312e-03 -2.183506e-03
-1.630875e-05 1.643325e-03 -2.193796e-03
-9.663050e-06 1.639131e-03 -2.207306e-03
2.844196e-05 1.637183e-03 -2.198027e-03
3.353139e-05 1.644066e-03 -2.177063e-03
-2.008238e-05 1.651233e-03 -2.192257e-03
-2.379144e-05 1.646095e-03 -2.217836e-03
1.316213e-05 1.641212e-03 -2.196488e-03
3.887427e-05 1.644348e-03 -2.168409e-03
-1.250865e-05 1.652459e-03 -2.190334e-03
-3.107363e-05 1.649099e-03 -2.207210e-03
1.816914e-05 1.642023e-03 -2.198796e-03
3.092688e-05 1.646526e-03 -2.185670e-03
-1.083369e-05 1.653524e-03 -2.190718e-03
-3.594977e-05 1.650609e-03 -2.206874e-03
1.038975e-05 1.642349e-03 -2.207691e-03
3.208648e-05 1.645367e-03 -2.180573e-03
-1.652337e-05 1.652434e-03 -2.187930e-03
-4.030615e-05 1.648041e-03 -2.203219e-03
-1.281036e-05 1.638576e-03 -2.212211e-03
3.043780e-05 1.636196e-03 -2.192305e-03
1.487487e-05 1.643393e-03 -2.187401e-03
-6.623629e-05 1.646565e-03 -2.201200e-03
-4.351908e-05 1.630724e-03 -2.204277e-03
-2.570789e-05 1.620558e-03 -2.188459e-03
-2.431902e-05 1.614024e-03 -2.177400e-03
-4.678919e-05 1.607309e-03 -2.194372e-03
-3.451680e-05 1.595902e-03 -2.208797e-03
6.905390e-06 1.588137e-03 -2.197642e-03
-3.002630e-06 1.589919e-03 -2.174515e-03
-4.528709e-05 1.588257e-03 -2.177688e-03
-4.979080e-05 1.576510e-03 -2.205335e-03
-3.463199e-06 1.564944e-03 -2.203748e-03
2.930004e-05 1.564540e-03 -2.184949e-03
-8.172975e-07 1.571193e-03 -2.188699e-03
-2.911833e-05 1.570694e-03 -2.205864e-03
2.691223e-05 1.564139e-03 -2.199806e-03
5.842785e-05 1.570896e-03 -2.175717e-03
2.522490e-05 1.584193e-03 -2.183073e-03
4.508692e-06 1.589763e-03 -2.208412e-03
4.642091e-05 1.591461e-03 -2.200238e-03
6.819354e-05 1.602960e-03 -2.176438e-03
5.137734e-05 1.618671e-03 -2.182641e-03
1.919709e-05 1.630561e-03 -2.205672e-03
3.204177e-05 1.635698e-03 -2.206152e-03
6.172882e-05 1.643995e-03 -2.181054e-03
1.971785e-05 1.658360e-03 -2.182256e-03
-2.433523e-05 1.662602e-03 -2.208172e-03
-1.381466e-06 1.657341e-03 -2.203123e-03
3.246918e-05 1.657437e-03 -2.184275e-03
2.534487e-05 1.664897e-03 -2.178650e-03
-3.073537e-05 1.670348e-03 -2.184179e-03
-1.514816e-05 1.662502e-03 -2.193988e-03
1.714482e-05 1.658913e-03 -2.187545e-03
6.887927e-06 1.662872e-03 -2.175525e-03
-1.264882e-05 1.663801e-03 -2.178794e-03
-1.533873e-05 1.660145e-03 -2.203412e-03
8.843746e-06 1.656973e-03 -2.193315e-03
1.413833e-05 1.659228e-03 -2.170813e-03
-2.776167e-05 1.661749e-03 -2.182112e-03
-9.138355e-05 1.654644e-03 -2.208220e-03
-9.892264e-05 1.633383e-03 -2.198844e-03
-5.547460e-05 1.609936e-03 -2.165524e-03
-6.824110e-05 1.595488e-03 -2.171197e-03
-1.387458e-04 1.578197e-03 -2.196055e-03
-1.815750e-04 1.545058e-03 -2.192786e-03
-1.995937e-04 1.501533e-03 -2.179660e-03
-1.661712e-04 1.453109e-03 -2.179083e-03
8.284488e-05 1.412669e-03 -2.202017e-03
3.871337e-04 1.433168e-03 -2.205335e-03
4.777265e-04 1.527062e-03 -2.190815e-03
3.805656e-04 1.642109e-03 -2.173361e-03
3.140647e-04 1.732939e-03 -2.178842e-03
2.644059e-04 1.807985e-03 -2.188651e-03
1.693199e-04 1.871578e-03 -2.179179e-03
8.868512e-06 1.911922e-03 -2.171823e-03
-1.240977e-04 1.913339e-03 -2.190045e-03
-1.587628e-04 1.883576e-03 -2.206152e-03
-1.263195e-04 1.846227e-03 -2.185574e-03
-1.261781e-04 1.815795e-03 -2.165620e-03
-1.522267e-04 1.784484e-03 -2.171438e-03
-1.512146e-04 1.747170e-03 -2.200671e-03
-9.865389e-05 1.711438e-03 -2.176967e-03
-6.692122e-05 1.687350e-03 -2.162110e-03
-8.610843e-05 1.670235e-03 -2.178121e-03
-9.228688e-05 1.649200e-03 -2.205816e-03
-3.961710e-05 1.627927e-03 -2.192738e-03
-1.170782e-05 1.618770e-03 -2.170717e-03
-3.600930e-05 1.615328e-03 -2.173794e-03
-4.962006e-05 1.606149e-03 -2.201008e-03
-1.261853e-05 1.594919e-03 -2.194661e-03
1.154858e-05 1.592340e-03 -2.174034e-03
-2.033217e-05 1.594651e-03 -2.177833e-03
-5.366677e-05 1.589425e-03 -2.200527e-03
-3.451342e-05 1.577194e-03 -2.207402e-03
1.335415e-05 1.569908e-03 -2.178602e-03
3.361415e-06 1.572833e-03 -2.166534e-03
-4.149262e-05 1.572779e-03 -2.190670e-03
-1.731500e-05 1.563026e-03 -2.200238e-03
1.621589e-05 1.559545e-03 -2.182352e-03
5.456013e-06 1.563334e-03 -2.177063e-03
-3.801879e-05 1.564257e-03 -2.176438e-03
-3.178381e-05 1.554704e-03 -2.195575e-03
1.018090e-05 1.547550e-03 -2.186632e-03
9.364822e-06 1.550097e-03 -2.172736e-03
-3.930779e-05 1.551795e-03 -2.179804e-03
-3.336908e-05 1.542105e-03 -2.192209e-03
2.012988e-05 1.534428e-03 -2.186103e-03
1.910533e-05 1.539347e-03 -2.176967e-03
-3.403659e-05 1.543591e-03 -2.183650e-03
-4.511836e-05 1.535343e-03 -2.202546e-03
1.012991e-05 1.525291e-03 -2.192209e-03
1.533982e-05 1.528063e-03 -2.175140e-03
-1.839519e-05 1.531314e-03 -2.171678e-03
-4.302573e-05 1.526279e-03 -2.202546e-03
-5.531614e-06 1.516720e-03 -2.200190e-03
9.199209e-06 1.516077e-03 -2.179083e-03
-1.024472e-05 1.518020e-03 -2.178794e-03
-4.683332e-05 1.515229e-03 -2.203171e-03
-2.134844e-05 1.504746e-03 -2.198796e-03
4.477709e-06 1.500219e-03 -2.178169e-03
-2.084110e-05 1.500969e-03 -2.178890e-03
-5.131986e-05 1.495628e-03 -2.200287e-03
-2.522543e-05 1.483909e-03 -2.199517e-03
-1.024392e-05 1.478448e-03 -2.180189e-03
-1.859207e-05 1.475737e-03 -2.177304e-03
-5.298250e-05 1.470846e-03 -2.199758e-03
-4.499606e-05 1.458676e-03 -2.209566e-03
-2.028948e-06 1.448885e-03 -2.191343e-03
-8.656316e-06 1.448588e-03 -2.176006e-03
-4.805755e-05 1.445967e-03 -2.193267e-03
-3.288422e-05 1.434640e-03 -2.201200e-03
5.239373e-06 1.427337e-03 -2.187641e-03
1.729465e-05 1.428599e-03 -2.173698e-03
-1.711703e-05 1.432095e-03 -2.179612e-03
-4.274009e-05 1.427571e-03 -2.196681e-03
-6.863397e-06 1.417706e-03 -2.191776e-03
2.589591e-07 1.416258e-03 -2.178410e-03
-1.698543e-05 1.415904e-03 -2.181294e-03
-3.897327e-05 1.411496e-03 -2.204614e-03
-2.838290e-06 1.402863e-03 -2.202017e-03
3.510151e-05 1.402811e-03 -2.173457e-03
3.546136e-06 1.410567e-03 -2.176438e-03
-2.087234e-05 1.410848e-03 -2.202402e-03
1.935580e-05 1.406440e-03 -2.194757e-03
4.553159e-05 1.411373e-03 -2.170572e-03
3.793708e-05 1.421516e-03 -2.172495e-03
1.438280e-05 1.429877e-03 -2.201729e-03
1.817709e-05 1.433872e-03 -2.211489e-03
5.933291e-05 1.439258e-03 -2.178602e-03
5.496159e-05 1.453053e-03 -2.163168e-03
1.770407e-05 1.465069e-03 -2.180766e-03
2.571016e-05 1.468939e-03 -2.199661e-03
4.858721e-05 1.475631e-03 -2.179756e-03
4.567244e-05 1.486961e-03 -2.161725e-03
2.554385e-06 1.496758e-03 -2.175236e-03
-8.521166e-06 1.496823e-03 -2.198171e-03
3.255531e-05 1.495318e-03 -2.181631e-03
3.376257e-05 1.502957e-03 -2.162062e-03
-1.063619e-05 1.509996e-03 -2.176246e-03
2.536042e-06 1.507018e-03 -2.190430e-03
2.260915e-05 1.507860e-03 -2.186343e-03
3.136333e-05 1.513386e-03 -2.169418e-03
-6.744249e-06 1.520240e-03 -2.178361e-03
-2.151997e-05 1.518332e-03 -2.199036e-03
1.178659e-05 1.513826e-03 -2.187785e-03
1.183851e-05 1.516851e-03 -2.166534e-03
-1.305088e-05 1.518951e-03 -2.172303e-03
-3.118515e-05 1.515304e-03 -2.199998e-03
1.523070e-05 1.508555e-03 -2.192690e-03
2.696783e-05 1.512636e-03 -2.173698e-03
-1.682555e-06 1.518689e-03 -2.164081e-03
-4.175591e-05 1.517412e-03 -2.188987e-03
-1.902867e-05 1.507667e-03 -2.191103e-03
1.868144e-05 1.503518e-03 -2.174996e-03
-4.673724e-06 1.507689e-03 -2.173842e-03
-4.652386e-05 1.506169e-03 -2.191247e-03
-2.608401e-05 1.495394e-03 -2.199084e-03
2.061147e-05 1.489904e-03 -2.179804e-03
2.572399e-05 1.494744e-03 -2.166870e-03
-3.221156e-05 1.500176e-03 -2.185381e-03
-2.493187e-05 1.492559e-03 -2.189180e-03
8.320864e-06 1.486904e-03 -2.169130e-03
3.880261e-06 1.488365e-03 -2.166293e-03
-1.728376e-05 1.488613e-03 -2.177256e-03
-3.984112e-05 1.484245e-03 -2.203123e-03
-1.839995e-06 1.475669e-03 -2.196055e-03
2.019090e-05 1.475900e-03 -2.170620e-03
-5.582620e-06 1.480230e-03 -2.167976e-03
-3.252991e-05 1.478232e-03 -2.191680e-03
-7.817826e-06 1.470877e-03 -2.195238e-03
1.885479e-05 1.469639e-03 -2.182256e-03
4.129796e-06 1.474171e-03 -2.180092e-03
-2.806201e-05 1.475014e-03 -2.189805e-03
3.062672e-06 1.468603e-03 -2.192257e-03
4.422500e-05 1.469800e-03 -2.168505e-03
-5.604720e-06 1.479771e-03 -2.173121e-03
-3.449811e-05 1.477988e-03 -2.195719e-03
-9.545777e-06 1.470297e-03 -2.192113e-03
2.632667e-05 1.468466e-03 -2.171197e-03
1.890834e-05 1.474298e-03 -2.164129e-03
-2.453623e-05 1.477979e-03 -2.184756e-03
-2.081235e-05 1.472188e-03 -2.198219e-03
2.573895e-05 1.467948e-03 -2.181823e-03
1.798003e-05 1.474120e-03 -2.170813e-03
-1.271160e-05 1.477887e-03 -2.182304e-03
-3.610329e-06 1.474795e-03 -2.193844e-03
1.909268e-05 1.474450e-03 -2.175621e-03
1.971894e-05 1.478776e-03 -2.159802e-03
-1.267333e-05 1.482512e-03 -2.170284e-03
-2.203883e-05 1.478944e-03 -2.192113e-03
1.337313e-05 1.474160e-03 -2.186968e-03
3.694071e-05 1.477661e-03 -2.166630e-03
-5.474393e-06 1.485842e-03 -2.180092e-03
-2.272865e-05 1.484442e-03 -2.199421e-03
1.268089e-05 1.479804e-03 -2.190141e-03
1.181675e-05 1.483264e-03 -2.169515e-03
-4.589524e-06 1.485583e-03 -2.173505e-03
-2.988089e-05 1.484093e-03 -2.198892e-03
1.035944e-05 1.477703e-03 -2.191968e-03
1.480016e-05 1.480666e-03 -2.177015e-03
-3.703472e-06 1.484023e-03 -2.170236e-03
-2.006400e-05 1.482594e-03 -2.188122e-03
1.550466e-06 1.478049e-03 -2.190382e-03
3.096179e-05 1.478832e-03 -2.172207e-03
1.515029e-05 1.485845e-03 -2.170668e-03
-3.810471e-05 1.488952e-03 -2.191247e-03
-2.252236e-05 1.480244e-03 -2.202642e-03
2.965102e-05 1.475816e-03 -2.177833e-03
2.982969e-05 1.482753e-03 -2.155571e-03
-4.239376e-06 1.488694e-03 -2.168986e-03
-1.695740e-05 1.487084e-03 -2.194228e-03
1.437718e-05 1.483637e-03 -2.176102e-03
1.062357e-05 1.486909e-03 -2.159995e-03
-1.806547e-05 1.488529e-03 -2.176679e-03
-1.334746e-05 1.484003e-03 -2.200719e-03
1.995400e-05 1.481714e-03 -2.185045e-03
1.436763e-05 1.486723e-03 -2.166630e-03
-1.543106e-05 1.489549e-03 -2.170909e-03
-3.147977e-05 1.485404e-03 -2.194132e-03
3.309376e-06 1.478502e-03 -2.188939e-03
2.502684e-05 1.479718e-03 -2.174755e-03
-8.979506e-06 1.485454e-03 -2.171823e-03
-3.679486e-05 1.482882e-03 -2.201152e-03
-2.842047e-06 1.474989e-03 -2.196873e-03
2.762533e-05 1.475053e-03 -2.172448e-03
1.086624e-05 1.481282e-03 -2.171486e-03
-2.659429e-05 1.483403e-03 -2.190286e-03
-1.731415e-06 1.477435e-03 -2.189228e-03
3.464017e-05 1.477414e-03 -2.163601e-03
1.961651e-07 1.484932e-03 -2.166966e-03
-4.705010e-05 1.484338e-03 -2.187785e-03
-1.794251e-05 1.473405e-03 -2.192642e-03
2.246556e-05 1.469682e-03 -2.174996e-03
2.333058e-05 1.474827e-03 -2.164514e-03
-4.377847e-06 1.479650e-03 -2.182064e-03
-1.190878e-05 1.478622e-03 -2.195575e-03
2.250746e-05 1.476469e-03 -2.165812e-03
1.028200e-05 1.481241e-03 -2.155523e-03
-2.628275e-05 1.482611e-03 -2.176679e-03
-2.580537e-05 1.476171e-03 -2.197594e-03
2.203919e-05 1.470831e-03 -2.178169e-03
3.587860e-05 1.476079e-03 -2.159129e-03
-3.710142e-06 1.483742e-03 -2.168312e-03
-3.696859e-05 1.482334e-03 -2.197882e-03
2.736904e-06 1.474362e-03 -2.189997e-03
2.692902e-05 1.475557e-03 -2.161918e-03
-7.215248e-06 1.481237e-03 -2.165524e-03
-2.852211e-05 1.478888e-03 -2.189036e-03
1.370221e-05 1.472532e-03 -2.192016e-03
2.715663e-05 1.476435e-03 -2.163360e-03
-6.608838e-06 1.482265e-03 -2.158456e-03
-3.998928e-05 1.479777e-03 -2.186824e-03
-4.093282e-06 1.470614e-03 -2.190141e-03
2.529042e-05 1.470224e-03 -2.165428e-03
-3.551751e-06 1.475747e-03 -2.161677e-03
-4.856395e-05 1.474168e-03 -2.188266e-03
-1.382923e-05 1.463041e-03 -2.198507e-03
1.750549e-05 1.460700e-03 -2.175236e-03
-1.728146e-05 1.464810e-03 -2.154802e-03
-6.023076e-05 1.459679e-03 -2.173121e-03
-4.028396e-05 1.445117e-03 -2.182593e-03
-6.150256e-06 1.435793e-03 -2.175284e-03
-4.829919e-06 1.434329e-03 -2.166245e-03
-4.547745e-05 1.432712e-03 -2.179131e-03
-4.220976e-05 1.421945e-03 -2.194998e-03
-7.782753e-06 1.412712e-03 -2.184324e-03
-1.266598e-05 1.411248e-03 -2.165764e-03
-5.012606e-05 1.407743e-03 -2.171630e-03
-5.347353e-05 1.395513e-03 -2.203268e-03
1.927049e-05 1.383928e-03 -2.193170e-03
4.808937e-05 1.389247e-03 -2.176919e-03
2.679228e-05 1.400639e-03 -2.180044e-03
-7.550100e-06 1.406998e-03 -2.193074e-03
3.452240e-05 1.405795e-03 -2.180573e-03
4.808830e-05 1.414106e-03 -2.181920e-03
3.784384e-05 1.425696e-03 -2.173024e-03
-9.086497e-06 1.434354e-03 -2.189949e-03
2.921099e-05 1.432598e-03 -2.191776e-03
7.180015e-05 1.440110e-03 -2.166005e-03
3.433800e-05 1.456608e-03 -2.170524e-03
1.192909e-06 1.464318e-03 -2.190766e-03
1.972812e-05 1.465016e-03 -2.200815e-03
5.006758e-05 1.470641e-03 -2.174996e-03
4.233610e-05 1.482363e-03 -2.157014e-03
-5.468719e-06 1.491367e-03 -2.181391e-03
-1.213624e-05 1.490052e-03 -2.198507e-03
8.342280e-06 1.487989e-03 -2.175765e-03
2.649504e-05 1.489838e-03 -2.159610e-03
-1.431922e-05 1.495216e-03 -2.174275e-03
-1.670414e-05 1.491495e-03 -2.182352e-03
1.854096e-05 1.487647e-03 -2.172303e-03
1.759945e-05 1.491810e-03 -2.174371e-03
-2.128946e-05 1.495791e-03 -2.177400e-03
-2.800574e-05 1.490584e-03 -2.192209e-03
1.069592e-05 1.484481e-03 -2.179323e-03
6.270111e-08 1.487085e-03 -2.169851e-03
-7.649805e-05 1.486716e-03 -2.169563e-03
-1.403605e-04 1.468072e-03 -2.181294e-03
-8.441494e-05 1.434820e-03 -2.177352e-03
-4.765730e-05 1.414794e-03 -2.157927e-03
-1.419953e-04 1.402633e-03 -2.166870e-03
-2.529981e-04 1.368383e-03 -2.199036e-03
-2.383866e-04 1.309201e-03 -2.198123e-03
-6.328713e-05 1.253534e-03 -2.170476e-03
2.274791e-04 1.238225e-03 -2.163552e-03
4.251412e-04 1.291546e-03 -2.177640e-03
4.400466e-04 1.392371e-03 -2.193315e-03
3.867904e-04 1.497508e-03 -2.173072e-03
3.457885e-04 1.589139e-03 -2.157735e-03
2.161265e-04 1.670286e-03 -2.174707e-03
9.103751e-05 1.721378e-03 -2.189324e-03
-2.116044e-06 1.743517e-03 -2.170476e-03
-7.874478e-05 1.742783e-03 -2.159610e-03
-1.581870e-04 1.723322e-03 -2.177881e-03
-1.917292e-04 1.685752e-03 -2.190815e-03
-1.519893e-04 1.640868e-03 -2.177977e-03
-1.102757e-04 1.604925e-03 -2.162399e-03
-1.308009e-04 1.578138e-03 -2.162495e-03
-1.226436e-04 1.546421e-03 -2.189324e-03
-6.199215e-05 1.517887e-03 -2.177207e-03
-4.192569e-05 1.503302e-03 -2.157783e-03
-6.631123e-05 1.492588e-03 -2.167928e-03
-8.186947e-05 1.476461e-03 -2.191968e-03
-3.813836e-05 1.457732e-03 -2.192016e-03
-3.764787e-06 1.449467e-03 -2.160860e-03
-2.552850e-05 1.447959e-03 -2.159995e-03
-6.065734e-05 1.441161e-03 -2.190382e-03
-1.711730e-05 1.427383e-03 -2.188939e-03
2.204155e-05 1.423949e-03 -2.171246e-03
-6.987051e-06 1.429033e-03 -2.162447e-03
-4.210731e-05 1.426746e-03 -2.185141e-03
-2.766367e-05 1.417111e-03 -2.193074e-03
2.820231e-05 1.411346e-03 -2.166582e-03
1.580497e-05 1.417684e-03 -2.162735e-03
-4.152167e-05 1.420824e-03 -2.183795e-03
-1.858289e-05 1.411252e-03 -2.198459e-03
2.301092e-05 1.407834e-03 -2.176679e-03
4.111698e-06 1.413366e-03 -2.163504e-03
-2.561403e-05 1.413763e-03 -2.173265e-03
-2.577119e-05 1.407477e-03 -2.191440e-03
-7.961476e-07 1.402023e-03 -2.177833e-03
1.493106e-05 1.401970e-03 -2.152686e-03
-1.411449e-05 1.404475e-03 -2.170717e-03
-3.772617e-05 1.400825e-03 -2.191632e-03
-8.922533e-07 1.392551e-03 -2.183073e-03
2.188738e-05 1.392706e-03 -2.168889e-03
-6.648255e-06 1.397586e-03 -2.176534e-03
-2.019452e-05 1.395939e-03 -2.196055e-03
1.277677e-06 1.391968e-03 -2.183025e-03
8.205964e-06 1.392588e-03 -2.172400e-03
-2.015920e-05 1.394364e-03 -2.165620e-03
-4.332307e-05 1.389016e-03 -2.189083e-03
-2.457392e-05 1.379211e-03 -2.194228e-03
1.682250e-05 1.374164e-03 -2.173361e-03
5.186504e-06 1.378010e-03 -2.170476e-03
-4.312436e-05 1.378865e-03 -2.197498e-03
-2.642919e-05 1.369430e-03 -2.195094e-03
5.138439e-06 1.363923e-03 -2.175380e-03
7.772750e-06 1.365038e-03 -2.170909e-03
-4.751775e-05 1.366478e-03 -2.192690e-03
-4.006354e-05 1.355707e-03 -2.198171e-03
5.021139e-06 1.347019e-03 -2.185670e-03
-9.424355e-06 1.348530e-03 -2.164466e-03
-4.090708e-05 1.345587e-03 -2.177592e-03
-3.456492e-05 1.335687e-03 -2.195526e-03
-1.376396e-05 1.328156e-03 -2.183650e-03
1.135855e-05 1.325103e-03 -2.166149e-03
-2.388100e-05 1.327167e-03 -2.176150e-03
-3.295833e-05 1.321242e-03 -2.193988e-03
2.495449e-06 1.314013e-03 -2.177400e-03
2.081222e-05 1.314544e-03 -2.169370e-03
-1.501114e-05 1.319018e-03 -2.180044e-03
-2.610374e-05 1.315350e-03 -2.205095e-03
-3.622484e-06 1.310177e-03 -2.188314e-03
1.342826e-05 1.309715e-03 -2.164514e-03
-1.251925e-05 1.312199e-03 -2.177207e-03
-2.686649e-05 1.308996e-03 -2.185622e-03
6.181595e-06 1.302777e-03 -2.181246e-03
4.648113e-05 1.304309e-03 -2.164129e-03
2.476865e-05 1.314674e-03 -2.158792e-03
-8.482669e-06 1.319558e-03 -2.185093e-03
2.759320e-05 1.317716e-03 -2.192449e-03
6.969147e-05 1.324853e-03 -2.172495e-03
5.486997e-05 1.341116e-03 -2.160716e-03
2.196156e-05 1.353253e-03 -2.185429e-03
3.396060e-05 1.358659e-03 -2.187641e-03
4.884257e-05 1.367097e-03 -2.173169e-03
3.072520e-05 1.378483e-03 -2.159610e-03
4.115166e-06 1.384899e-03 -2.170717e-03
1.679761e-05 1.385439e-03 -2.188507e-03
5.592994e-05 1.389868e-03 -2.176198e-03
5.728120e-05 1.403134e-03 -2.156869e-03
1.379270e-05 1.415802e-03 -2.162879e-03
5.279046e-06 1.418354e-03 -2.184612e-03
3.482083e-05 1.419920e-03 -2.180910e-03
4.379972e-05 1.428443e-03 -2.153648e-03
9.678819e-06 1.437850e-03 -2.157735e-03
-1.178096e-05 1.439260e-03 -2.186535e-03
1.639128e-05 1.436908e-03 -2.183554e-03
4.544751e-05 1.441219e-03 -2.157975e-03
1.540347e-06 1.451278e-03 -2.164081e-03
-2.910576e-05 1.451104e-03 -2.187785e-03
-4.507819e-06 1.444729e-03 -2.182496e-03
2.245786e-05 1.444063e-03 -2.157975e-03
7.613800e-06 1.448714e-03 -2.162254e-03
-4.264402e-05 1.449929e-03 -2.192497e-03
-3.029465e-05 1.440561e-03 -2.189709e-03
2.487481e-05 1.434097e-03 -2.168986e-03
1.718089e-05 1.439820e-03 -2.156773e-03
-2.377159e-05 1.443077e-03 -2.178746e-03
-4.796801e-06 1.437565e-03 -2.189709e-03
2.678432e-05 1.437141e-03 -2.164129e-03
5.122988e-06 1.443127e-03 -2.158216e-03
-3.538644e-05 1.443633e-03 -2.175621e-03
-1.911101e-05 1.435243e-03 -2.192449e-03
1.675534e-05 1.431543e-03 -2.174323e-03
4.265112e-06 1.435619e-03 -2.155523e-03
-3.296548e-05 1.435827e-03 -2.160475e-03
-2.974353e-05 1.427365e-03 -2.178121e-03
2.095000e-05 1.420521e-03 -2.179467e-03
2.686551e-05 1.425856e-03 -2.156100e-03
-1.557502e-05 1.431515e-03 -2.158071e-03
-2.838591e-05 1.427113e-03 -2.183362e-03
4.179024e-06 1.420848e-03 -2.181487e-03
3.174345e-05 1.422325e-03 -2.153936e-03
6.610036e-06 1.429091e-03 -2.153119e-03
-1.796407e-05 1.429769e-03 -2.184227e-03
-2.263068e-07 1.426022e-03 -2.185333e-03
2.848074e-05 1.426645e-03 -2.159898e-03
7.424287e-06 1.432941e-03 -2.156965e-03
-3.292529e-05 1.434008e-03 -2.182496e-03
1.951640e-06 1.426633e-03 -2.195575e-03
3.615105e-05 1.428206e-03 -2.160379e-03
1.560089e-05 1.436351e-03 -2.147734e-03
-1.797904e-05 1.438967e-03 -2.177400e-03
5.643755e-06 1.434913e-03 -2.185237e-03
2.774003e-05 1.436906e-03 -2.162495e-03
5.064632e-06 1.443185e-03 -2.151773e-03
-2.705896e-05 1.443528e-03 -2.170476e-03
-3.070244e-05 1.437026e-03 -2.196392e-03
2.350345e-05 1.430902e-03 -2.175525e-03
2.476888e-05 1.436752e-03 -2.153023e-03
-1.977364e-05 1.441820e-03 -2.175717e-03
-3.430983e-06 1.437257e-03 -2.191247e-03
3.026044e-05 1.437319e-03 -2.169659e-03
1.846181e-05 1.444501e-03 -2.153359e-03
-1.023200e-06 1.448119e-03 -2.158552e-03
-1.376041e-05 1.447249e-03 -2.185526e-03
2.268162e-05 1.444608e-03 -2.178169e-03
3.897661e-05 1.450383e-03 -2.160427e-03
1.466092e-06 1.459189e-03 -2.163937e-03
-3.008448e-05 1.459150e-03 -2.190382e-03
-1.079190e-06 1.452839e-03 -2.179131e-03
2.345524e-05 1.453019e-03 -2.146291e-03
5.626987e-07 1.457544e-03 -2.162447e-03
-2.516153e-05 1.457257e-03 -2.185718e-03
-4.744981e-07 1.451898e-03 -2.183891e-03
2.698995e-05 1.452417e-03 -2.164178e-03
1.135639e-05 1.458579e-03 -2.162543e-03
-9.761537e-06 1.460849e-03 -2.177063e-03
-5.766293e-06 1.458728e-03 -2.175573e-03
2.612050e-05 1.457613e-03 -2.160187e-03
1.186002e-05 1.463412e-03 -2.149561e-03
-2.403776e-05 1.465268e-03 -2.170524e-03
-2.025947e-05 1.459518e-03 -2.180429e-03
1.539116e-05 1.455217e-03 -2.159754e-03
2.522633e-05 1.458508e-03 -2.148888e-03
7.782322e-08 1.463558e-03 -2.158937e-03
-2.546420e-05 1.463040e-03 -2.175380e-03
1.001787e-05 1.457320e-03 -2.168745e-03
2.398721e-05 1.459795e-03 -2.159610e-03
-1.304369e-05 1.465093e-03 -2.167351e-03
-1.877597e-05 1.461882e-03 -2.188699e-03
1.739213e-05 1.458312e-03 -2.174275e-03
1.243338e-05 1.462743e-03 -2.161341e-03
-2.388188e-05 1.465401e-03 -2.157206e-03
-3.251982e-05 1.459182e-03 -2.182689e-03
1.482599e-05 1.452080e-03 -2.175909e-03
3.075030e-05 1.455965e-03 -2.165235e-03
5.032797e-06 1.463123e-03 -2.158263e-03
-2.158808e-05 1.463780e-03 -2.175236e-03
-6.424049e-06 1.458905e-03 -2.185381e-03
2.554699e-05 1.458187e-03 -2.155619e-03
4.061970e-06 1.463709e-03 -2.149128e-03
-3.060953e-05 1.463763e-03 -2.179035e-03
-1.406095e-05 1.456926e-03 -2.194324e-03
2.337787e-05 1.454779e-03 -2.170284e-03
9.789519e-06 1.460433e-03 -2.152782e-03
-1.715550e-05 1.461992e-03 -2.162735e-03
1.868695e-06 1.457584e-03 -2.169755e-03
3.664976e-05 1.458095e-03 -2.158792e-03
1.920000e-05 1.466409e-03 -2.151580e-03
-1.921368e-05 1.470205e-03 -2.165957e-03
-1.427265e-05 1.465504e-03 -2.179515e-03
2.549449e-05 1.462664e-03 -2.163120e-03
2.814689e-05 1.468569e-03 -2.148888e-03
-4.758230e-06 1.474404e-03 -2.158023e-03
-2.872454e-05 1.472792e-03 -2.189228e-03
8.001325e-06 1.466982e-03 -2.175477e-03
1.513485e-05 1.469320e-03 -2.156917e-03
-8.979332e-06 1.472471e-03 -2.157927e-03
-3.041276e-05 1.469864e-03 -2.182160e-03
3.721612e-07 1.463312e-03 -2.179612e-03
2.774514e-05 1.464019e-03 -2.156004e-03
-6.584236e-07 1.470112e-03 -2.153215e-03
-3.520728e-05 1.469273e-03 -2.175044e-03
-7.919549e-06 1.461267e-03 -2.181871e-03
4.352861e-05 1.460111e-03 -2.168024e-03
2.629760e-05 1.470466e-03 -2.149561e-03
-4.843630e-05 1.475819e-03 -2.166582e-03
-2.188039e-05 1.464312e-03 -2.182208e-03
-5.515924e-06 1.459873e-03 -2.157687e-03
-1.790005e-05 1.458265e-03 -2.140762e-03
-5.978691e-05 1.452888e-03 -2.168312e-03
-4.769552e-05 1.438826e-03 -2.176679e-03
-9.984513e-07 1.428093e-03 -2.160283e-03
-1.022512e-05 1.427703e-03 -2.151244e-03
-3.400135e-05 1.424650e-03 -2.157591e-03
-3.910561e-05 1.416196e-03 -2.180910e-03
4.893867e-06 1.407680e-03 -2.166726e-03
5.758721e-06 1.408979e-03 -2.159321e-03
-2.610468e-05 1.410071e-03 -2.168361e-03
-3.451304e-06 1.403957e-03 -2.177160e-03
2.371403e-05 1.403621e-03 -2.168409e-03
4.230962e-05 1.409402e-03 -2.150667e-03
2.121009e-05 1.418722e-03 -2.158216e-03
-9.376869e-06 1.423297e-03 -2.184227e-03
2.965261e-05 1.421867e-03 -2.175957e-03
6.811364e-05 1.429371e-03 -2.146676e-03
3.302706e-05 1.444601e-03 -2.150955e-03
9.963303e-06 1.451654e-03 -2.173842e-03
3.336406e-05 1.454313e-03 -2.175140e-03
6.781545e-05 1.462654e-03 -2.155331e-03
4.488882e-05 1.478224e-03 -2.150138e-03
-3.361526e-06 1.488058e-03 -2.174082e-03
6.723673e-06 1.487588e-03 -2.180525e-03
3.129344e-05 1.489896e-03 -2.160620e-03
1.256233e-05 1.497136e-03 -2.156436e-03
-2.357526e-05 1.499664e-03 -2.178169e-03
-2.983573e-06 1.494603e-03 -2.175957e-03
3.598231e-05 1.494391e-03 -2.148984e-03
1.089689e-05 1.502215e-03 -2.144753e-03
-2.643908e-05 1.503875e-03 -2.167207e-03
-3.457532e-05 1.497682e-03 -2.189036e-03
6.944867e-06 1.490636e-03 -2.157350e-03
2.583976e-05 1.492032e-03 -2.135473e-03
-4.485429e-06 1.496826e-03 -2.150042e-03
-5.426410e-05 1.495062e-03 -2.183650e-03
-5.344995e-05 1.483189e-03 -2.160956e-03
-5.535749e-05 1.470624e-03 -2.148936e-03
-5.494159e-05 1.457035e-03 -2.149753e-03
-6.331026e-05 1.443477e-03 -2.156485e-03
-8.190618e-05 1.428321e-03 -2.156725e-03
-1.588516e-04 1.408960e-03 -2.149561e-03
-2.433939e-04 1.371232e-03 -2.164322e-03
-1.560282e-04 1.314205e-03 -2.184900e-03
1.751117e-04 1.278571e-03 -2.180189e-03
4.031626e-04 1.320496e-03 -2.151196e-03
4.010873e-04 1.414599e-03 -2.142782e-03
2.497682e-04 1.507692e-03 -2.161293e-03
2.522650e-04 1.566113e-03 -2.174419e-03
2.733169e-04 1.625838e-03 -2.153167e-03
1.845545e-04 1.689598e-03 -2.145570e-03
2.064889e-05 1.732099e-03 -2.167688e-03
-8.101233e-05 1.737117e-03 -2.178506e-03
-9.358007e-05 1.718913e-03 -2.158889e-03
-1.217336e-04 1.696966e-03 -2.141002e-03
-1.752886e-04 1.667534e-03 -2.166870e-03
-1.636429e-04 1.626606e-03 -2.174034e-03
-1.089856e-04 1.588826e-03 -2.159225e-03
-9.043848e-05 1.563306e-03 -2.148696e-03
-1.077533e-04 1.541579e-03 -2.164947e-03
-9.469093e-05 1.516401e-03 -2.178890e-03
-4.619283e-05 1.494972e-03 -2.170332e-03
-1.201648e-05 1.484643e-03 -2.147974e-03
-4.431031e-05 1.481261e-03 -2.147542e-03
-5.437644e-05 1.470172e-03 -2.176631e-03
-2.150049e-05 1.458067e-03 -2.171149e-03
-3.861940e-06 1.453555e-03 -2.156725e-03
-2.433900e-05 1.452491e-03 -2.159081e-03
-4.544887e-05 1.446580e-03 -2.180044e-03
-1.187743e-05 1.436664e-03 -2.174900e-03
1.023545e-05 1.434505e-03 -2.162975e-03
-1.528261e-05 1.436993e-03 -2.146820e-03
-5.454826e-05 1.432648e-03 -2.167928e-03
-1.741308e-05 1.420034e-03 -2.175284e-03
2.456588e-05 1.416568e-03 -2.165187e-03
-2.766594e-06 1.422505e-03 -2.155908e-03
-4.309330e-05 1.421481e-03 -2.172880e-03
-2.523765e-05 1.411704e-03 -2.179515e-03
2.263978e-05 1.406522e-03 -2.161870e-03
1.756253e-05 1.411839e-03 -2.148551e-03
-3.129059e-05 1.415257e-03 -2.164322e-03
-2.566417e-05 1.407851e-03 -2.173409e-03
1.409670e-05 1.402275e-03 -2.157735e-03
9.809694e-06 1.405409e-03 -2.156340e-03
-3.251044e-05 1.407388e-03 -2.155812e-03
-4.017472e-05 1.399331e-03 -2.180766e-03
2.579715e-06 1.390666e-03 -2.167688e-03
2.218168e-05 1.391546e-03 -2.148647e-03
-4.982365e-07 1.396099e-03 -2.157254e-03
-3.918426e-05 1.395599e-03 -2.182160e-03
-6.595661e-06 1.387196e-03 -2.176871e-03
1.978650e-05 1.386296e-03 -2.165716e-03
-9.612292e-06 1.391030e-03 -2.158696e-03
-3.793075e-05 1.388432e-03 -2.168697e-03
-1.425683e-05 1.379664e-03 -2.179804e-03
-2.380064e-06 1.377066e-03 -2.166630e-03
-1.791375e-05 1.376637e-03 -2.162254e-03
-3.494781e-05 1.372227e-03 -2.173457e-03
-2.332411e-05 1.364305e-03 -2.182112e-03
-1.846174e-06 1.359608e-03 -2.164658e-03
-8.198397e-06 1.359180e-03 -2.156581e-03
-4.445306e-05 1.356778e-03 -2.175765e-03
-2.598758e-05 1.346679e-03 -2.182112e-03
1.458625e-05 1.341300e-03 -2.163360e-03
1.088179e-06 1.344653e-03 -2.153119e-03
-5.131648e-05 1.344264e-03 -2.168264e-03
-4.867723e-05 1.332201e-03 -2.184420e-03
1.070343e-05 1.321576e-03 -2.167591e-03
1.427837e-05 1.324203e-03 -2.155667e-03
-3.304357e-05 1.327050e-03 -2.154898e-03
-2.507678e-05 1.318650e-03 -2.189420e-03
6.246207e-06 1.313724e-03 -2.182208e-03
7.202783e-06 1.315940e-03 -2.144320e-03
-3.675587e-05 1.316626e-03 -2.157254e-03
-2.496425e-05 1.307479e-03 -2.176150e-03
8.910902e-06 1.301972e-03 -2.180910e-03
4.360567e-05 1.304732e-03 -2.158648e-03
5.278111e-06 1.314596e-03 -2.160043e-03
-3.946533e-05 1.315393e-03 -2.188795e-03
2.051576e-06 1.307003e-03 -2.176054e-03
3.531969e-05 1.307921e-03 -2.147157e-03
1.846999e-05 1.315347e-03 -2.154850e-03
6.949337e-06 1.319031e-03 -2.180862e-03
2.987509e-05 1.321155e-03 -2.180958e-03
5.700194e-05 1.328791e-03 -2.160908e-03
5.174464e-05 1.341933e-03 -2.152302e-03
6.450582e-06 1.353330e-03 -2.170476e-03
9.398145e-06 1.354855e-03 -2.183650e-03
5.200324e-05 1.357782e-03 -2.159562e-03
4.718523e-05 1.369716e-03 -2.139993e-03
8.312358e-06 1.379549e-03 -2.162062e-03
1.157622e-05 1.381189e-03 -2.173505e-03
5.341321e-05 1.384211e-03 -2.154225e-03
3.989774e-05 1.396284e-03 -2.149369e-03
-4.730196e-06 1.404899e-03 -2.160379e-03
-1.136253e-05 1.403455e-03 -2.180429e-03
1.955755e-05 1.401430e-03 -2.160139e-03
2.038950e-05 1.405888e-03 -2.143503e-03
-1.918863e-05 1.409742e-03 -2.158648e-03
-1.085158e-05 1.404867e-03 -2.174755e-03
2.956343e-05 1.402724e-03 -2.166485e-03
4.047548e-05 1.409843e-03 -2.148936e-03
-5.954270e-06 1.418720e-03 -2.156629e-03
-6.602795e-05 1.416914e-03 -2.182352e-03
-6.729276e-06 1.402186e-03 -2.175380e-03
3.946910e-05 1.401184e-03 -2.154321e-03
7.167099e-06 1.410071e-03 -2.153648e-03
-3.604038e-05 1.411207e-03 -2.178938e-03
-7.575283e-06 1.403321e-03 -2.182352e-03
1.416456e-05 1.402400e-03 -2.156196e-03
1.039464e-07 1.405450e-03 -2.146436e-03
-3.493956e-05 1.404626e-03 -2.177977e-03
-2.032738e-05 1.396936e-03 -2.178602e-03
2.166353e-05 1.392833e-03 -2.159129e-03
8.645559e-06 1.397774e-03 -2.151099e-03
-2.617742e-05 1.399180e-03 -2.174130e-03
-3.371012e-05 1.393347e-03 -2.184083e-03
6.407864e-06 1.386309e-03 -2.154465e-03
2.038918e-05 1.387473e-03 -2.141435e-03
-6.460906e-06 1.391244e-03 -2.156436e-03
-1.771907e-05 1.389280e-03 -2.173698e-03
2.737129e-06 1.385556e-03 -2.156677e-03
7.981419e-07 1.386005e-03 -2.144608e-03
-2.512080e-05 1.385383e-03 -2.160043e-03
-2.806847e-05 1.379243e-03 -2.181967e-03
5.951090e-06 1.373447e-03 -2.175140e-03
2.926669e-05 1.375470e-03 -2.149272e-03
1.104520e-05 1.381768e-03 -2.145907e-03
-2.828134e-05 1.383494e-03 -2.175861e-03
6.121166e-06 1.377364e-03 -2.173986e-03
3.401459e-05 1.379376e-03 -2.154898e-03
7.055015e-06 1.387056e-03 -2.154177e-03
-3.266929e-05 1.388219e-03 -2.179564e-03
-8.038832e-06 1.381187e-03 -2.178506e-03
2.565274e-05 1.380046e-03 -2.154321e-03
1.417878e-05 1.385750e-03 -2.153023e-03
-1.275481e-05 1.388547e-03 -2.171582e-03
-4.574001e-06 1.385799e-03 -2.182208e-03
2.799177e-05 1.385592e-03 -2.157591e-03
1.468558e-05 1.391974e-03 -2.162014e-03
-2.233090e-05 1.395286e-03 -2.169370e-03
-9.212231e-06 1.390149e-03 -2.180381e-03
2.891388e-05 1.388709e-03 -2.160139e-03
6.568066e-07 1.395425e-03 -2.141868e-03
-3.013355e-05 1.394579e-03 -2.156244e-03
-2.886014e-05 1.387054e-03 -2.172640e-03
2.463580e-05 1.380678e-03 -2.158552e-03
2.262278e-05 1.386345e-03 -2.154129e-03
-9.120558e-06 1.391260e-03 -2.154417e-03
-2.786671e-05 1.388610e-03 -2.177400e-03
1.269192e-05 1.382669e-03 -2.168889e-03
3.896353e-05 1.386015e-03 -2.148359e-03
4.814020e-07 1.394543e-03 -2.150859e-03
-3.061332e-05 1.394000e-03 -2.174563e-03
4.864180e-06 1.387276e-03 -2.176006e-03
2.895763e-05 1.389097e-03 -2.156485e-03
8.678098e-06 1.395674e-03 -2.149513e-03
-2.939061e-05 1.397009e-03 -2.174707e-03
-2.356818e-07 1.390548e-03 -2.177592e-03
1.381067e-05 1.391214e-03 -2.159321e-03
-5.781458e-06 1.394363e-03 -2.166053e-03
-2.382913e-05 1.393034e-03 -2.186247e-03
-1.507325e-05 1.388317e-03 -2.177736e-03
2.614383e-05 1.385420e-03 -2.165043e-03
1.850256e-05 1.391667e-03 -2.156773e-03
-1.697265e-05 1.395602e-03 -2.158216e-03
-2.388555e-05 1.391216e-03 -2.170717e-03
1.737737e-05 1.385918e-03 -2.158889e-03
2.318563e-05 1.389869e-03 -2.142589e-03
-1.724222e-05 1.394332e-03 -2.146724e-03
-1.753094e-05 1.389428e-03 -2.171678e-03
2.768125e-05 1.385710e-03 -2.155427e-03
2.752228e-05 1.391976e-03 -2.140377e-03
-1.602895e-05 1.397447e-03 -2.158408e-03
-2.764993e-05 1.393393e-03 -2.181054e-03
1.220061e-05 1.387728e-03 -2.163360e-03
1.792762e-05 1.390752e-03 -2.146916e-03
-1.270598e-05 1.394316e-03 -2.155186e-03
-1.850469e-05 1.390931e-03 -2.178313e-03
1.834322e-05 1.387259e-03 -2.174130e-03
3.794982e-05 1.392174e-03 -2.152638e-03
1.966976e-06 1.400702e-03 -2.147734e-03
-2.700387e-05 1.400440e-03 -2.163697e-03
5.605638e-07 1.394127e-03 -2.166582e-03
2.165757e-05 1.394570e-03 -2.148359e-03
-7.189820e-07 1.399157e-03 -2.147397e-03
-2.309201e-05 1.398307e-03 -2.169611e-03
1.498768e-06 1.393189e-03 -2.172976e-03
3.512009e-05 1.394138e-03 -2.146532e-03
-7.957510e-06 1.401829e-03 -2.136964e-03
-4.673933e-05 1.398875e-03 -2.169563e-03
-1.965267e-05 1.388233e-03 -2.184852e-03
1.922842e-05 1.384740e-03 -2.164466e-03
1.992418e-05 1.389525e-03 -2.145089e-03
-1.479543e-05 1.393472e-03 -2.156869e-03
-1.653374e-05 1.389730e-03 -2.168409e-03
2.380559e-05 1.386220e-03 -2.156244e-03
3.674278e-05 1.391746e-03 -2.131002e-03
-1.477562e-05 1.399078e-03 -2.157446e-03
-2.062724e-05 1.395409e-03 -2.176294e-03
2.242091e-05 1.391307e-03 -2.161341e-03
1.211349e-05 1.396759e-03 -2.146147e-03
-2.412746e-05 1.399054e-03 -2.154273e-03
-3.565195e-05 1.393077e-03 -2.181391e-03
1.427468e-05 1.385654e-03 -2.174563e-03
3.858876e-05 1.389756e-03 -2.152446e-03
-2.145491e-06 1.398516e-03 -2.152157e-03
-4.711963e-05 1.397573e-03 -2.167111e-03
-3.052562e-05 1.386797e-03 -2.169226e-03
1.807490e-05 1.380171e-03 -2.144464e-03
1.538941e-05 1.383819e-03 -2.139416e-03
-3.710988e-05 1.386458e-03 -2.168745e-03
-2.903908e-05 1.378098e-03 -2.178890e-03
-3.666376e-06 1.372246e-03 -2.148551e-03
-2.096157e-05 1.371031e-03 -2.140474e-03
-6.279168e-05 1.365260e-03 -2.164995e-03
-4.231290e-05 1.350743e-03 -2.168312e-03
-4.845597e-06 1.341308e-03 -2.148455e-03
-2.035381e-06 1.339843e-03 -2.138214e-03
-4.059410e-05 1.338447e-03 -2.156677e-03
-3.711978e-05 1.328770e-03 -2.168649e-03
-1.192048e-07 1.320570e-03 -2.153167e-03
1.047064e-05 1.320461e-03 -2.140762e-03
-9.894159e-06 1.322171e-03 -2.156340e-03
-5.397756e-07 1.319693e-03 -2.168217e-03
2.869056e-05 1.320031e-03 -2.156869e-03
5.222676e-05 1.326835e-03 -2.143695e-03
2.256982e-05 1.338461e-03 -2.153600e-03
9.066658e-06 1.343454e-03 -2.175140e-03
4.241849e-05 1.346308e-03 -2.172111e-03
6.343723e-05 1.356974e-03 -2.147782e-03
2.264437e-05 1.371419e-03 -2.147830e-03
7.787633e-06 1.376178e-03 -2.166822e-03
4.035529e-05 1.378325e-03 -2.175621e-03
5.654144e-05 1.388632e-03 -2.148743e-03
2.677647e-05 1.401521e-03 -2.148359e-03
-2.849740e-05 1.407270e-03 -2.167399e-03
-5.923135e-06 1.400947e-03 -2.166822e-03
3.701310e-05 1.400034e-03 -2.146916e-03
2.354206e-05 1.408313e-03 -2.143936e-03
-2.052551e-05 1.413146e-03 -2.164322e-03
-4.885458e-08 1.408536e-03 -2.174707e-03
2.469550e-05 1.409323e-03 -2.147782e-03
2.347857e-05 1.414770e-03 -2.137493e-03
-2.714544e-05 1.419333e-03 -2.159850e-03
-2.906571e-05 1.412984e-03 -2.172880e-03
2.787954e-06 1.406901e-03 -2.158071e-03
8.020379e-06 1.407727e-03 -2.134127e-03
-2.870950e-05 1.408589e-03 -2.143407e-03
-7.577682e-05 1.401180e-03 -2.164322e-03
-6.532926e-05 1.383857e-03 -2.149801e-03
-7.049162e-05 1.368489e-03 -2.140281e-03
-7.777003e-05 1.351438e-03 -2.125857e-03
-1.350341e-04 1.331916e-03 -2.154465e-03
-1.907069e-04 1.300418e-03 -2.165428e-03
-2.046563e-04 1.256622e-03 -2.149657e-03
-1.749794e-04 1.208818e-03 -2.153408e-03
7.440085e-05 1.167918e-03 -2.171726e-03
3.866897e-04 1.185946e-03 -2.163024e-03
4.904005e-04 1.276484e-03 -2.143118e-03
3.795896e-04 1.390275e-03 -2.139752e-03
2.980612e-04 1.477910e-03 -2.162591e-03
2.687738e-04 1.547537e-03 -2.167832e-03
1.850297e-04 1.610750e-03 -2.151676e-03
4.318481e-05 1.653789e-03 -2.127540e-03
-9.381134e-05 1.662601e-03 -2.162928e-03
-1.349612e-04 1.641053e-03 -2.177688e-03
-1.302784e-04 1.610742e-03 -2.152446e-03
-1.388248e-04 1.580488e-03 -2.135137e-03
-1.685477e-04 1.547321e-03 -2.155571e-03
-1.351274e-04 1.508034e-03 -2.175140e-03
-8.515775e-05 1.477538e-03 -2.154080e-03
-8.793279e-05 1.457859e-03 -2.138406e-03
-1.064497e-04 1.436709e-03 -2.151484e-03
-8.787714e-05 1.411693e-03 -2.167543e-03
-3.694270e-05 1.391820e-03 -2.165524e-03
-1.787258e-05 1.383857e-03 -2.151003e-03
-3.851237e-05 1.379589e-03 -2.144416e-03
-4.499425e-05 1.370061e-03 -2.160091e-03
-8.095432e-06 1.359798e-03 -2.159995e-03
9.616402e-06 1.358291e-03 -2.147109e-03
-2.486896e-05 1.360273e-03 -2.149320e-03
-3.979808e-05 1.354142e-03 -2.164947e-03
-1.456454e-05 1.345257e-03 -2.165235e-03
4.260410e-06 1.342443e-03 -2.144128e-03
-1.373198e-05 1.343078e-03 -2.136675e-03
-3.683694e-05 1.339017e-03 -2.159081e-03
-1.134960e-05 1.330551e-03 -2.172303e-03
2.894259e-05 1.328771e-03 -2.151580e-03
3.147416e-06 1.335478e-03 -2.145714e-03
-3.400507e-05 1.335752e-03 -2.169178e-03
-2.107500e-05 1.328352e-03 -2.179227e-03
1.372375e-05 1.324565e-03 -2.150282e-03
3.991060e-06 1.327663e-03 -2.135425e-03
-3.193609e-05 1.327673e-03 -2.157206e-03
-6.475363e-06 1.320194e-03 -2.164706e-03
9.551810e-06 1.319121e-03 -2.149224e-03
-1.001666e-06 1.321212e-03 -2.134896e-03
-3.090972e-05 1.320108e-03 -2.147542e-03
-3.885528e-05 1.312475e-03 -2.171438e-03
1.415898e-05 1.304176e-03 -2.152638e-03
2.248271e-05 1.307536e-03 -2.128261e-03
-2.803702e-05 1.311658e-03 -2.146772e-03
-3.325738e-05 1.304713e-03 -2.166726e-03
9.363404e-06 1.297529e-03 -2.153023e-03
1.222312e-05 1.299814e-03 -2.139752e-03
-3.479509e-05 1.302116e-03 -2.151532e-03
-5.463228e-05 1.293826e-03 -2.173265e-03
-1.864627e-05 1.281928e-03 -2.164178e-03
9.780558e-06 1.278167e-03 -2.141099e-03
-4.913252e-06 1.279975e-03 -2.138166e-03
-4.569884e-05 1.278065e-03 -2.161197e-03
-2.094734e-05 1.267689e-03 -2.176294e-03
-6.283793e-06 1.263893e-03 -2.158792e-03
-1.394159e-05 1.262752e-03 -2.147349e-03
-3.581759e-05 1.259145e-03 -2.159995e-03
-3.618777e-05 1.250957e-03 -2.158168e-03
3.679218e-07 1.242768e-03 -2.149320e-03
-6.398800e-06 1.242756e-03 -2.146868e-03
-3.272776e-05 1.240909e-03 -2.157687e-03
-2.543563e-05 1.233329e-03 -2.161822e-03
4.685382e-06 1.227777e-03 -2.146772e-03
2.582346e-06 1.228678e-03 -2.138021e-03
-4.015934e-05 1.228579e-03 -2.152879e-03
-2.218462e-05 1.219067e-03 -2.173601e-03
1.385098e-05 1.214765e-03 -2.156244e-03
8.517299e-06 1.218224e-03 -2.135714e-03
-2.322617e-05 1.219435e-03 -2.150138e-03
-3.753399e-05 1.213741e-03 -2.178890e-03
1.498050e-05 1.206087e-03 -2.163312e-03
3.765490e-05 1.210097e-03 -2.138839e-03
6.174501e-06 1.218210e-03 -2.149032e-03
-1.917100e-05 1.219275e-03 -2.172784e-03
1.703916e-05 1.215568e-03 -2.163504e-03
4.316050e-05 1.220025e-03 -2.144224e-03
1.889780e-05 1.229672e-03 -2.144705e-03
-1.365278e-05 1.233518e-03 -2.163024e-03
1.037482e-05 1.230598e-03 -2.171197e-03
6.750511e-05 1.233809e-03 -2.148022e-03
5.866209e-05 1.249288e-03 -2.140185e-03
1.434098e-05 1.262164e-03 -2.170476e-03
3.262860e-05 1.266041e-03 -2.174082e-03
6.855355e-05 1.274495e-03 -2.145811e-03
3.178499e-05 1.290108e-03 -2.139752e-03
5.324737e-06 1.296759e-03 -2.154177e-03
9.654279e-06 1.297815e-03 -2.163360e-03
5.235613e-05 1.300453e-03 -2.145474e-03
3.692701e-05 1.312324e-03 -2.132973e-03
-1.239992e-05 1.319917e-03 -2.153263e-03
-3.119787e-06 1.316839e-03 -2.170668e-03
3.709544e-05 1.316820e-03 -2.152157e-03
2.488797e-05 1.325469e-03 -2.143166e-03
-7.702360e-06 1.330749e-03 -2.153936e-03
-1.710676e-05 1.328807e-03 -2.152542e-03
1.714402e-05 1.324751e-03 -2.141627e-03
3.216101e-05 1.328341e-03 -2.144128e-03
-3.660169e-06 1.335458e-03 -2.151003e-03
-3.351201e-05 1.334394e-03 -2.160572e-03
9.192296e-06 1.326885e-03 -2.152879e-03
1.637395e-05 1.329127e-03 -2.145186e-03
-9.428866e-06 1.332668e-03 -2.144176e-03
-4.190183e-05 1.329994e-03 -2.164418e-03
-2.037281e-06 1.320709e-03 -2.154225e-03
2.700513e-05 1.320419e-03 -2.137156e-03
8.188438e-06 1.326110e-03 -2.135088e-03
-2.328181e-05 1.327193e-03 -2.151821e-03
-1.274872e-05 1.321708e-03 -2.159658e-03
8.228398e-06 1.319194e-03 -2.144031e-03
-3.106592e-07 1.320906e-03 -2.133358e-03
-3.988959e-05 1.320001e-03 -2.156485e-03
-2.259263e-05 1.310877e-03 -2.174563e-03
4.475145e-05 1.306712e-03 -2.159514e-03
2.006034e-05 1.317604e-03 -2.119847e-03
-3.286872e-05 1.320865e-03 -2.136387e-03
-2.829394e-05 1.312492e-03 -2.159129e-03
1.683049e-05 1.306361e-03 -2.144945e-03
1.772728e-05 1.310224e-03 -2.118981e-03
-2.439828e-05 1.313019e-03 -2.131867e-03
-2.498794e-05 1.306493e-03 -2.155331e-03
4.115436e-06 1.300998e-03 -2.157446e-03
2.422463e-05 1.302524e-03 -2.135377e-03
-5.014460e-07 1.307633e-03 -2.146628e-03
-2.927852e-05 1.307322e-03 -2.171246e-03
6.298586e-06 1.301506e-03 -2.158263e-03
3.614518e-05 1.303538e-03 -2.138262e-03
1.170540e-05 1.311534e-03 -2.145714e-03
-2.037256e-05 1.313994e-03 -2.172015e-03
6.434762e-06 1.310217e-03 -2.165524e-03
1.901347e-05 1.312545e-03 -2.146195e-03
-4.693788e-07 1.316929e-03 -2.131531e-03
-2.938520e-05 1.315939e-03 -2.167303e-03
6.829918e-06 1.309822e-03 -2.165091e-03
3.173692e-05 1.312177e-03 -2.137252e-03
-1.008107e-06 1.319103e-03 -2.133069e-03
-3.272759e-05 1.318080e-03 -2.153936e-03
-2.051967e-06 1.310579e-03 -2.152302e-03
3.221726e-05 1.310303e-03 -2.132877e-03
2.311475e-05 1.317193e-03 -2.132204e-03
-1.634057e-05 1.321790e-03 -2.144753e-03
-1.793120e-05 1.317707e-03 -2.168024e-03
2.244076e-05 1.314453e-03 -2.143791e-03
2.075211e-05 1.319604e-03 -2.117347e-03
-3.152786e-06 1.323075e-03 -2.130328e-03
-5.186969e-06 1.321455e-03 -2.160331e-03
2.563825e-05 1.320825e-03 -2.153023e-03
3.491739e-05 1.327172e-03 -2.141002e-03
8.860862e-07 1.335047e-03 -2.134656e-03
-2.048102e-05 1.334585e-03 -2.159273e-03
1.899261e-05 1.330355e-03 -2.149801e-03
1.899206e-05 1.335019e-03 -2.139848e-03
-8.491633e-06 1.339184e-03 -2.144128e-03
-2.368866e-05 1.336976e-03 -2.169370e-03
-7.290461e-06 1.332405e-03 -2.165043e-03
2.574222e-05 1.331635e-03 -2.135425e-03
1.680021e-05 1.337163e-03 -2.138454e-03
-2.509116e-05 1.340541e-03 -2.163072e-03
-5.459454e-06 1.335286e-03 -2.172159e-03
4.552695e-05 1.335169e-03 -2.154850e-03
1.881389e-05 1.346112e-03 -2.138454e-03
-5.049133e-05 1.349930e-03 -2.155042e-03
-2.051703e-05 1.338371e-03 -2.168505e-03
1.453157e-05 1.334527e-03 -2.150234e-03
6.995168e-06 1.338073e-03 -2.135233e-03
-1.761858e-05 1.339031e-03 -2.142445e-03
-1.073729e-05 1.334505e-03 -2.157687e-03
1.865994e-05 1.332418e-03 -2.143887e-03
2.778395e-05 1.336661e-03 -2.126915e-03
-5.325996e-06 1.342124e-03 -2.141676e-03
-1.879796e-05 1.340451e-03 -2.158456e-03
2.665494e-05 1.336540e-03 -2.145666e-03
1.983017e-05 1.342740e-03 -2.128213e-03
-2.258244e-05 1.346495e-03 -2.139176e-03
-3.243013e-05 1.340764e-03 -2.162014e-03
9.825947e-06 1.333848e-03 -2.159321e-03
2.671870e-05 1.336764e-03 -2.140618e-03
-4.686525e-06 1.342687e-03 -2.144945e-03
-2.073393e-05 1.341329e-03 -2.170188e-03
1.765653e-05 1.337412e-03 -2.167351e-03
2.769517e-05 1.342423e-03 -2.149272e-03
-8.620222e-06 1.348928e-03 -2.139656e-03
-2.448162e-05 1.346423e-03 -2.149417e-03
3.731436e-06 1.340664e-03 -2.161774e-03
2.843806e-05 1.342161e-03 -2.145570e-03
7.970105e-06 1.348686e-03 -2.141099e-03
-4.717512e-05 1.350076e-03 -2.163889e-03
-2.074996e-05 1.339662e-03 -2.169178e-03
2.055582e-05 1.335763e-03 -2.145907e-03
1.604347e-05 1.340468e-03 -2.126722e-03
-2.352694e-05 1.343112e-03 -2.143455e-03
-2.314603e-05 1.337250e-03 -2.166245e-03
1.241303e-05 1.332655e-03 -2.145522e-03
2.558024e-05 1.335499e-03 -2.131482e-03
-1.016295e-05 1.340615e-03 -2.146484e-03
-2.155472e-05 1.337967e-03 -2.166101e-03
2.156895e-05 1.333692e-03 -2.147878e-03
2.475456e-05 1.338776e-03 -2.126290e-03
-9.961757e-06 1.343539e-03 -2.138695e-03
-2.561106e-05 1.340629e-03 -2.168745e-03
1.330005e-05 1.335519e-03 -2.161581e-03
3.058657e-05 1.339291e-03 -2.140714e-03
6.177839e-06 1.346054e-03 -2.148696e-03
-2.517413e-05 1.347308e-03 -2.164755e-03
-1.093759e-05 1.342063e-03 -2.150378e-03
2.618885e-05 1.339698e-03 -2.133213e-03
-3.389377e-06 1.345140e-03 -2.141002e-03
-2.736191e-05 1.343870e-03 -2.163601e-03
-8.598993e-06 1.338041e-03 -2.167495e-03
2.515026e-05 1.336939e-03 -2.146484e-03
6.130601e-06 1.342736e-03 -2.138743e-03
-5.240121e-05 1.343570e-03 -2.165524e-03
-3.145532e-05 1.332000e-03 -2.171053e-03
2.127386e-06 1.325728e-03 -2.139176e-03
-3.209101e-05 1.325857e-03 -2.133261e-03
-4.766706e-05 1.317633e-03 -2.146195e-03
-3.707983e-05 1.306276e-03 -2.164995e-03
-8.281224e-07 1.298392e-03 -2.146291e-03
-7.877480e-06 1.298181e-03 -2.130905e-03
-5.504314e-05 1.295487e-03 -2.151628e-03
-5.283889e-05 1.282657e-03 -2.172784e-03
-1.819613e-06 1.271449e-03 -2.149417e-03
2.025112e-05 1.271159e-03 -2.135329e-03
5.095298e-06 1.275208e-03 -2.149994e-03
-4.895003e-06 1.276207e-03 -2.172736e-03
3.238487e-05 1.275997e-03 -2.164081e-03
6.871406e-05 1.284240e-03 -2.124607e-03
1.858049e-05 1.299034e-03 -2.142156e-03
-6.499107e-06 1.302813e-03 -2.164899e-03
1.898007e-05 1.301855e-03 -2.163601e-03
6.157066e-05 1.306961e-03 -2.136627e-03
6.604608e-05 1.320660e-03 -2.139176e-03
4.372619e-05 1.335288e-03 -2.161437e-03
3.951697e-05 1.345747e-03 -2.157879e-03
3.905054e-05 1.355300e-03 -2.141868e-03
2.191254e-05 1.364072e-03 -2.135617e-03
1.437911e-05 1.368385e-03 -2.154513e-03
4.296099e-05 1.371729e-03 -2.163745e-03
3.122725e-05 1.382309e-03 -2.144128e-03
7.140757e-07 1.389406e-03 -2.138214e-03
-3.198609e-05 1.388978e-03 -2.154321e-03
-1.964470e-05 1.381590e-03 -2.177833e-03
1.832773e-05 1.378283e-03 -2.147542e-03
8.301349e-06 1.382540e-03 -2.122587e-03
-1.544672e-05 1.383210e-03 -2.131386e-03
-2.016077e-05 1.378644e-03 -2.163841e-03
3.042723e-05 1.374598e-03 -2.160860e-03
2.729101e-05 1.382302e-03 -2.136002e-03
-2.175010e-05 1.388022e-03 -2.146436e-03
-6.740659e-05 1.382665e-03 -2.172784e-03
-6.345427e-05 1.368038e-03 -2.150330e-03
-6.551608e-05 1.353560e-03 -2.129030e-03
-8.219444e-05 1.337591e-03 -2.127732e-03
-1.135027e-04 1.317501e-03 -2.152879e-03
-1.465103e-04 1.291369e-03 -2.152542e-03
-1.784667e-04 1.257839e-03 -2.134511e-03
-2.184003e-04 1.216083e-03 -2.153263e-03
-6.149207e-05 1.165674e-03 -2.177063e-03
2.916168e-04 1.152594e-03 -2.163745e-03
5.001604e-04 1.220758e-03 -2.138647e-03
4.331143e-04 1.335981e-03 -2.133021e-03
3.295025e-04 1.435218e-03 -2.151436e-03
3.093500e-04 1.511288e-03 -2.156965e-03
2.582280e-04 1.583181e-03 -2.131002e-03
8.660598e-05 1.642197e-03 -2.131338e-03
-8.196650e-05 1.661383e-03 -2.157062e-03
-1.348906e-04 1.642666e-03 -2.158263e-03
-1.208593e-04 1.611998e-03 -2.137012e-03
-1.362937e-04 1.583775e-03 -2.130954e-03
-1.647176e-04 1.551521e-03 -2.150715e-03
-1.470564e-04 1.513424e-03 -2.161485e-03
-1.004364e-04 1.480075e-03 -2.141868e-03
-5.904433e-05 1.456809e-03 -2.126963e-03
-7.784359e-05 1.442289e-03 -2.139079e-03
-9.481747e-05 1.423778e-03 -2.161004e-03
-3.192784e-05 1.402479e-03 -2.147253e-03
-3.945412e-06 1.395315e-03 -2.131386e-03
-4.925184e-05 1.393791e-03 -2.146628e-03
-5.795015e-05 1.382247e-03 -2.172159e-03
-2.696667e-05 1.369920e-03 -2.154609e-03
3.121501e-06 1.364208e-03 -2.132059e-03
-1.237302e-05 1.364365e-03 -2.139800e-03
-3.475804e-05 1.361027e-03 -2.160043e-03
-1.036955e-05 1.353467e-03 -2.159033e-03
1.918493e-05 1.351751e-03 -2.138454e-03
5.052249e-06 1.355931e-03 -2.139127e-03
-3.404893e-05 1.356615e-03 -2.161341e-03
-1.405942e-05 1.349223e-03 -2.169851e-03
2.309514e-05 1.347072e-03 -2.142012e-03
1.190880e-06 1.352291e-03 -2.139224e-03
-2.930792e-05 1.352067e-03 -2.160812e-03
-2.153604e-06 1.345684e-03 -2.163168e-03
1.694424e-05 1.345914e-03 -2.137541e-03
4.871693e-06 1.349524e-03 -2.129896e-03
-2.856804e-05 1.349788e-03 -2.144176e-03
-2.796953e-05 1.342843e-03 -2.157110e-03
3.040279e-05 1.336831e-03 -2.137733e-03
3.190095e-05 1.343602e-03 -2.124944e-03
-1.726291e-05 1.349974e-03 -2.138166e-03
-2.851965e-05 1.345413e-03 -2.167447e-03
3.979663e-06 1.339742e-03 -2.141002e-03
2.518072e-05 1.340610e-03 -2.122155e-03
-4.762666e-06 1.345408e-03 -2.127684e-03
-5.151251e-05 1.343307e-03 -2.173072e-03
-7.996890e-06 1.332535e-03 -2.172015e-03
6.306902e-06 1.331982e-03 -2.151580e-03
-5.822298e-06 1.333725e-03 -2.144705e-03
-3.548215e-05 1.332085e-03 -2.168649e-03
-1.464264e-05 1.324708e-03 -2.162543e-03
1.799688e-05 1.322119e-03 -2.144512e-03
-4.769261e-06 1.326229e-03 -2.140666e-03
-5.506510e-05 1.324646e-03 -2.158263e-03
-2.523416e-05 1.312220e-03 -2.159418e-03
-1.465098e-06 1.306963e-03 -2.151821e-03
-8.070480e-06 1.306884e-03 -2.151244e-03
-4.745939e-05 1.304972e-03 -2.168889e-03
-3.021775e-05 1.294654e-03 -2.178410e-03
1.115365e-05 1.288958e-03 -2.156965e-03
1.109066e-05 1.291954e-03 -2.136771e-03
-3.091147e-05 1.293809e-03 -2.148359e-03
-2.383233e-05 1.286345e-03 -2.165380e-03
1.189395e-06 1.281470e-03 -2.151388e-03
-9.352476e-06 1.281914e-03 -2.134367e-03
-4.228960e-05 1.278983e-03 -2.146436e-03
-3.662238e-05 1.268796e-03 -2.168120e-03
1.097751e-05 1.261055e-03 -2.153263e-03
3.702209e-05 1.263812e-03 -2.142541e-03
-1.424156e-05 1.271995e-03 -2.139127e-03
-4.367446e-05 1.267963e-03 -2.164658e-03
4.293255e-07 1.258382e-03 -2.161533e-03
2.497722e-05 1.259076e-03 -2.134752e-03
4.458333e-06 1.264161e-03 -2.144320e-03
-1.338341e-05 1.264693e-03 -2.162495e-03
2.752809e-05 1.261959e-03 -2.161052e-03
5.398326e-05 1.268872e-03 -2.138502e-03
3.611609e-05 1.280873e-03 -2.136146e-03
1.532837e-05 1.288391e-03 -2.156965e-03
5.961218e-05 1.292043e-03 -2.153263e-03
7.299642e-05 1.306018e-03 -2.137541e-03
4.262868e-05 1.322441e-03 -2.130425e-03
1.247733e-05 1.331293e-03 -2.153985e-03
2.805160e-05 1.334181e-03 -2.164178e-03
5.050474e-05 1.341346e-03 -2.147734e-03
4.956754e-05 1.353053e-03 -2.134944e-03
1.343223e-05 1.363754e-03 -2.146580e-03
1.493923e-05 1.366527e-03 -2.161629e-03
4.621754e-05 1.370539e-03 -2.150138e-03
4.674339e-05 1.381409e-03 -2.131290e-03
-3.132756e-06 1.391378e-03 -2.138887e-03
-8.886283e-06 1.390015e-03 -2.161581e-03
3.801555e-05 1.388502e-03 -2.151580e-03
4.577177e-05 1.397574e-03 -2.127973e-03
5.947185e-06 1.407252e-03 -2.131915e-03
-3.384977e-05 1.407719e-03 -2.157975e-03
1.253153e-05 1.400282e-03 -2.162495e-03
5.234227e-05 1.403986e-03 -2.139320e-03
1.674928e-05 1.415779e-03 -2.132925e-03
-1.640123e-05 1.418830e-03 -2.162302e-03
1.497200e-05 1.415585e-03 -2.154369e-03
1.757737e-05 1.419470e-03 -2.145234e-03
-5.715500e-06 1.423530e-03 -2.137108e-03
-2.441972e-05 1.421608e-03 -2.147590e-03
-2.209465e-05 1.415821e-03 -2.166870e-03
8.553148e-06 1.411666e-03 -2.148696e-03
6.299185e-06 1.413824e-03 -2.137637e-03
-2.192626e-05 1.414739e-03 -2.146340e-03
-1.032939e-05 1.409440e-03 -2.159898e-03
1.031418e-05 1.407645e-03 -2.147734e-03
-1.603998e-06 1.410187e-03 -2.138502e-03
-2.635536e-05 1.409359e-03 -2.149417e-03
-4.775254e-06 1.403165e-03 -2.153936e-03
4.132963e-05 1.402353e-03 -2.132588e-03
3.486119e-05 1.411418e-03 -2.119462e-03
-2.697721e-05 1.418251e-03 -2.144176e-03
-2.806158e-05 1.411739e-03 -2.163697e-03
9.467339e-06 1.405992e-03 -2.150282e-03
1.698579e-05 1.408522e-03 -2.124415e-03
-8.474766e-06 1.411529e-03 -2.134896e-03
-2.981094e-05 1.408921e-03 -2.157831e-03
1.242317e-05 1.402507e-03 -2.146340e-03
3.018545e-05 1.405564e-03 -2.131627e-03
6.909931e-06 1.412011e-03 -2.134896e-03
-2.220375e-05 1.412997e-03 -2.158648e-03
-3.287236e-06 1.408360e-03 -2.152879e-03
1.829203e-05 1.408081e-03 -2.132492e-03
1.411074e-05 1.411878e-03 -2.130905e-03
-2.957083e-05 1.414402e-03 -2.153888e-03
-1.229659e-05 1.407850e-03 -2.157735e-03
3.462195e-05 1.405695e-03 -2.132108e-03
1.923859e-05 1.413289e-03 -2.126578e-03
-1.679369e-05 1.416867e-03 -2.145234e-03
-6.318308e-06 1.412882e-03 -2.154754e-03
4.970238e-05 1.411963e-03 -2.137348e-03
4.715291e-05 1.423311e-03 -2.130425e-03
-1.449467e-05 1.433560e-03 -2.144753e-03
-1.030716e-05 1.430093e-03 -2.151099e-03
2.729678e-05 1.428069e-03 -2.138743e-03
2.832740e-05 1.434348e-03 -2.121193e-03
-2.273783e-05 1.439928e-03 -2.136867e-03
-1.221697e-05 1.434263e-03 -2.154321e-03
3.193123e-05 1.431946e-03 -2.137733e-03
3.526545e-05 1.439286e-03 -2.120135e-03
-6.337480e-06 1.446510e-03 -2.129030e-03
-3.341273e-05 1.444352e-03 -2.152061e-03
1.280357e-05 1.437081e-03 -2.145714e-03
2.962051e-05 1.440410e-03 -2.128598e-03
-1.160551e-05 1.446778e-03 -2.146628e-03
-2.509520e-05 1.444208e-03 -2.165332e-03
1.050659e-05 1.439378e-03 -2.166726e-03
4.824864e-05 1.443034e-03 -2.137012e-03
1.305907e-05 1.454039e-03 -2.133838e-03
-2.714253e-05 1.456545e-03 -2.158456e-03
-2.268444e-06 1.450855e-03 -2.155667e-03
4.445230e-05 1.451014e-03 -2.134415e-03
2.529544e-05 1.461035e-03 -2.136098e-03
-2.865686e-05 1.466474e-03 -2.149994e-03
-2.451032e-05 1.460019e-03 -2.166582e-03
2.859320e-05 1.455478e-03 -2.136916e-03
1.679681e-05 1.461937e-03 -2.131290e-03
-8.829998e-06 1.465206e-03 -2.155234e-03
-8.085242e-06 1.463499e-03 -2.164418e-03
2.174429e-05 1.462567e-03 -2.135233e-03
3.181214e-05 1.467356e-03 -2.124559e-03
-7.913125e-06 1.473809e-03 -2.134992e-03
-2.124140e-05 1.471415e-03 -2.157350e-03
3.214687e-05 1.467117e-03 -2.144272e-03
2.294938e-05 1.474729e-03 -2.120328e-03
-2.932723e-05 1.479020e-03 -2.139320e-03
-2.886222e-05 1.471919e-03 -2.162254e-03
2.209971e-05 1.466058e-03 -2.153119e-03
2.166224e-05 1.471736e-03 -2.134223e-03
-5.435538e-06 1.476380e-03 -2.138214e-03
-2.382478e-05 1.474720e-03 -2.155667e-03
3.684965e-06 1.469664e-03 -2.148743e-03
2.564305e-05 1.470881e-03 -2.126290e-03
5.490660e-06 1.476128e-03 -2.128021e-03
-8.702070e-06 1.476569e-03 -2.160523e-03
8.310408e-06 1.475184e-03 -2.156340e-03
5.474878e-06 1.477778e-03 -2.134127e-03
-2.102942e-06 1.478769e-03 -2.130665e-03
-2.407338e-05 1.477612e-03 -2.152782e-03
2.326297e-06 1.472321e-03 -2.157927e-03
3.213616e-05 1.473571e-03 -2.138695e-03
2.205945e-05 1.480908e-03 -2.139176e-03
-8.032984e-06 1.485709e-03 -2.144128e-03
-9.760747e-06 1.483687e-03 -2.160475e-03
3.248265e-05 1.482215e-03 -2.136531e-03
2.477420e-05 1.489540e-03 -2.124463e-03
-2.317439e-05 1.494359e-03 -2.142637e-03
-3.002387e-05 1.488804e-03 -2.149946e-03
7.550924e-06 1.482193e-03 -2.135954e-03
3.161899e-05 1.483801e-03 -2.117299e-03
-7.001063e-06 1.489966e-03 -2.129127e-03
-1.780275e-05 1.487594e-03 -2.151436e-03
1.086073e-05 1.483884e-03 -2.146820e-03
3.315221e-05 1.486787e-03 -2.126530e-03
-6.988604e-06 1.493800e-03 -2.132829e-03
-4.214027e-05 1.491640e-03 -2.157831e-03
1.046069e-05 1.482601e-03 -2.147205e-03
2.210901e-05 1.485425e-03 -2.133887e-03
-1.865659e-05 1.490275e-03 -2.139993e-03
-4.150632e-05 1.485766e-03 -2.155523e-03
-1.001158e-05 1.476725e-03 -2.153696e-03
-4.148147e-06 1.475092e-03 -2.137733e-03
-2.185442e-05 1.474095e-03 -2.132300e-03
-5.479356e-05 1.468522e-03 -2.151965e-03
-5.037635e-05 1.456219e-03 -2.163120e-03
-4.165035e-06 1.445684e-03 -2.136146e-03
4.074809e-07 1.444622e-03 -2.129751e-03
-4.533628e-05 1.444063e-03 -2.151532e-03
-4.128913e-05 1.433861e-03 -2.163360e-03
1.300596e-05 1.425340e-03 -2.147493e-03
2.517508e-05 1.428701e-03 -2.131771e-03
1.325838e-05 1.433935e-03 -2.137973e-03
6.110955e-08 1.436554e-03 -2.148022e-03
2.553609e-05 1.436802e-03 -2.134992e-03
3.387148e-05 1.442507e-03 -2.127540e-03
7.325440e-06 1.449628e-03 -2.132108e-03
7.583598e-06 1.450667e-03 -2.148214e-03
5.397088e-05 1.452650e-03 -2.131050e-03
5.874200e-05 1.464755e-03 -2.121482e-03
4.617719e-05 1.477416e-03 -2.140666e-03
2.236206e-05 1.487817e-03 -2.154706e-03
3.877738e-05 1.493471e-03 -2.148984e-03
4.985090e-05 1.502879e-03 -2.137733e-03
1.775090e-05 1.514256e-03 -2.132204e-03
-2.202627e-06 1.517767e-03 -2.152638e-03
2.229659e-05 1.517644e-03 -2.144753e-03
1.751340e-05 1.523053e-03 -2.129078e-03
5.627956e-06 1.526668e-03 -2.127444e-03
-2.374078e-05 1.527236e-03 -2.151196e-03
-3.552005e-06 1.522097e-03 -2.157062e-03
2.221616e-05 1.522100e-03 -2.136291e-03
2.120845e-05 1.527147e-03 -2.127636e-03
-2.730646e-05 1.531330e-03 -2.149849e-03
-2.620451e-05 1.525277e-03 -2.161581e-03
2.908905e-05 1.520228e-03 -2.130569e-03
2.102483e-05 1.526609e-03 -2.117972e-03
-6.475617e-05 1.530364e-03 -2.145234e-03
-8.552664e-05 1.515506e-03 -2.154129e-03
-6.766291e-05 1.496488e-03 -2.138647e-03
-2.381884e-05 1.481060e-03 -2.113500e-03
-5.336585e-05 1.474402e-03 -2.124559e-03
-1.397748e-04 1.461284e-03 -2.145618e-03
-1.862714e-04 1.429455e-03 -2.148455e-03
-2.122982e-04 1.387303e-03 -2.131627e-03
-9.425180e-05 1.338302e-03 -2.136627e-03
2.093808e-04 1.316376e-03 -2.154129e-03
3.821801e-04 1.364990e-03 -2.155523e-03
3.802294e-04 1.453535e-03 -2.120905e-03
2.790989e-04 1.540001e-03 -2.123549e-03
2.380796e-04 1.603137e-03 -2.153023e-03
2.269888e-04 1.658222e-03 -2.161052e-03
1.865328e-04 1.711372e-03 -2.134415e-03
3.990297e-05 1.754050e-03 -2.145714e-03
-1.034180e-04 1.763321e-03 -2.164226e-03
-1.213363e-04 1.740466e-03 -2.152638e-03
-1.072948e-04 1.713251e-03 -2.132973e-03
-1.183453e-04 1.688433e-03 -2.127973e-03
-1.631681e-04 1.660605e-03 -2.156773e-03
-1.615363e-04 1.623682e-03 -2.170861e-03
-7.736606e-05 1.587977e-03 -2.136531e-03
-5.988116e-05 1.570156e-03 -2.125136e-03
-7.865022e-05 1.555605e-03 -2.148936e-03
-6.743329e-05 1.537656e-03 -2.156773e-03
-3.026273e-05 1.522844e-03 -2.139320e-03
-2.235892e-05 1.515950e-03 -2.121193e-03
-5.488999e-05 1.509872e-03 -2.131771e-03
-6.447993e-05 1.496623e-03 -2.155956e-03
-8.844048e-06 1.482433e-03 -2.139176e-03
1.239487e-05 1.480475e-03 -2.128742e-03
-3.516415e-06 1.482778e-03 -2.132252e-03
-3.532372e-05 1.481362e-03 -2.149561e-03
1.868353e-06 1.473548e-03 -2.145426e-03
9.545474e-06 1.474333e-03 -2.123068e-03
-2.289128e-05 1.475805e-03 -2.124559e-03
-4.117634e-05 1.469665e-03 -2.150571e-03
5.006731e-06 1.460552e-03 -2.146628e-03
3.969402e-05 1.462119e-03 -2.130232e-03
-7.122689e-07 1.470887e-03 -2.136579e-03
-5.547326e-05 1.470403e-03 -2.162495e-03
-1.875277e-05 1.458493e-03 -2.163456e-03
2.848569e-05 1.455296e-03 -2.136675e-03
-7.820204e-07 1.461774e-03 -2.133598e-03
-3.119679e-05 1.461128e-03 -2.149176e-03
-2.173869e-05 1.454122e-03 -2.159610e-03
1.864130e-05 1.449996e-03 -2.138983e-03
2.834763e-06 1.454310e-03 -2.129127e-03
-3.155614e-05 1.454323e-03 -2.137973e-03
-1.995040e-05 1.446708e-03 -2.153263e-03
1.342060e-05 1.442666e-03 -2.136771e-03
-3.408197e-07 1.445706e-03 -2.134608e-03
-3.516360e-05 1.445286e-03 -2.146436e-03
-3.238091e-05 1.437214e-03 -2.155138e-03
1.756109e-05 1.430353e-03 -2.139079e-03
2.948729e-05 1.434438e-03 -2.129704e-03
-1.887384e-05 1.440680e-03 -2.145714e-03
-4.902911e-05 1.436313e-03 -2.162399e-03
-1.109877e-05 1.425885e-03 -2.156436e-03
3.314844e-06 1.424116e-03 -2.143503e-03
-2.464871e-05 1.424962e-03 -2.145522e-03
-4.298542e-05 1.419210e-03 -2.158792e-03
-1.756596e-05 1.409898e-03 -2.154994e-03
8.424119e-06 1.406506e-03 -2.133213e-03
-1.842233e-05 1.408061e-03 -2.138454e-03
-4.728298e-05 1.403410e-03 -2.166245e-03
-1.915804e-05 1.393363e-03 -2.169130e-03
4.405274e-06 1.390139e-03 -2.146051e-03
-1.479194e-05 1.391305e-03 -2.136675e-03
-4.186745e-05 1.387368e-03 -2.160379e-03
-1.731176e-05 1.378199e-03 -2.168697e-03
6.914186e-06 1.375273e-03 -2.153408e-03
1.156945e-05 1.377301e-03 -2.133069e-03
-3.266584e-05 1.379225e-03 -2.147830e-03
-2.294345e-05 1.371521e-03 -2.159610e-03
1.067031e-05 1.366805e-03 -2.148984e-03
2.125610e-05 1.369489e-03 -2.137156e-03
-1.416986e-05 1.373855e-03 -2.143262e-03
-3.894471e-05 1.370166e-03 -2.166101e-03
2.027900e-06 1.361984e-03 -2.150282e-03
2.494225e-05 1.362726e-03 -2.130761e-03
2.116855e-06 1.367713e-03 -2.137541e-03
-2.034007e-05 1.367524e-03 -2.157446e-03
3.739616e-05 1.363206e-03 -2.144897e-03
5.269164e-05 1.371854e-03 -2.137012e-03
1.363436e-05 1.383554e-03 -2.145282e-03
1.345544e-06 1.386370e-03 -2.173842e-03
3.531377e-05 1.387694e-03 -2.159898e-03
4.778503e-05 1.396475e-03 -2.136675e-03
3.081546e-05 1.407050e-03 -2.133117e-03
8.511662e-06 1.413294e-03 -2.150955e-03
2.077222e-05 1.415218e-03 -2.159754e-03
6.405802e-05 1.420638e-03 -2.136002e-03
4.346281e-05 1.434982e-03 -2.137493e-03
-1.191170e-07 1.444379e-03 -2.164947e-03
2.367879e-05 1.444910e-03 -2.162399e-03
5.940301e-05 1.451064e-03 -2.133406e-03
2.742574e-05 1.464242e-03 -2.129799e-03
-1.843471e-05 1.469666e-03 -2.142878e-03
-1.402239e-05 1.465013e-03 -2.148599e-03
3.409781e-05 1.461897e-03 -2.124655e-03
2.573924e-05 1.468957e-03 -2.118645e-03
-1.119572e-05 1.473630e-03 -2.138695e-03
-1.652552e-05 1.470546e-03 -2.156388e-03
2.595472e-05 1.467251e-03 -2.134848e-03
3.631891e-05 1.472994e-03 -2.111769e-03
-1.019364e-05 1.479937e-03 -2.124703e-03
-2.028381e-05 1.476564e-03 -2.150042e-03
-1.287458e-06 1.472183e-03 -2.145330e-03
1.156723e-05 1.472215e-03 -2.127636e-03
-1.373382e-05 1.474293e-03 -2.136435e-03
-3.686973e-05 1.470696e-03 -2.156244e-03
-2.547071e-06 1.462769e-03 -2.148647e-03
2.044436e-05 1.462665e-03 -2.137685e-03
1.042606e-05 1.467298e-03 -2.135233e-03
-2.090022e-05 1.469246e-03 -2.143503e-03
-6.425614e-06 1.464389e-03 -2.154802e-03
1.408016e-05 1.463644e-03 -2.133935e-03
2.759297e-06 1.466695e-03 -2.135088e-03
-1.823916e-05 1.466922e-03 -2.152157e-03
-2.428329e-06 1.463035e-03 -2.159466e-03
1.474681e-05 1.463362e-03 -2.139176e-03
-2.209038e-06 1.466807e-03 -2.131482e-03
-3.289718e-05 1.465761e-03 -2.144128e-03
-4.150374e-05 1.458117e-03 -2.149272e-03
2.044196e-05 1.448964e-03 -2.139224e-03
1.638837e-05 1.453739e-03 -2.131482e-03
-2.275781e-05 1.457017e-03 -2.142253e-03
-1.596573e-05 1.451619e-03 -2.154129e-03
6.089467e-06 1.448508e-03 -2.140281e-03
1.426953e-05 1.450039e-03 -2.129222e-03
-2.294808e-05 1.452783e-03 -2.139945e-03
-3.711753e-05 1.447240e-03 -2.156965e-03
2.750982e-05 1.439348e-03 -2.141243e-03
3.183464e-05 1.445841e-03 -2.124415e-03
2.621468e-06 1.452457e-03 -2.136435e-03
-1.680638e-05 1.452651e-03 -2.165187e-03
1.360343e-05 1.449745e-03 -2.157735e-03
4.682230e-05 1.453740e-03 -2.136194e-03
1.554392e-05 1.464344e-03 -2.132973e-03
-2.212602e-05 1.467347e-03 -2.152205e-03
-5.136733e-06 1.462571e-03 -2.155908e-03
1.944976e-05 1.462120e-03 -2.140041e-03
4.139798e-06 1.466612e-03 -2.133406e-03
-2.862332e-05 1.467017e-03 -2.151580e-03
-1.230959e-05 1.460656e-03 -2.161485e-03
3.162817e-05 1.458741e-03 -2.131386e-03
1.801856e-05 1.465667e-03 -2.111865e-03
-2.433122e-05 1.468350e-03 -2.145234e-03
-2.246128e-05 1.462682e-03 -2.169611e-03
2.602298e-05 1.458769e-03 -2.138502e-03
2.623076e-05 1.464763e-03 -2.117395e-03
-2.331422e-05 1.469641e-03 -2.133358e-03
-2.922351e-05 1.463675e-03 -2.157591e-03
2.517458e-05 1.457646e-03 -2.142060e-03
3.042638e-05 1.463646e-03 -2.121385e-03
-1.078216e-05 1.469754e-03 -2.132300e-03
-1.715437e-05 1.466654e-03 -2.153408e-03
2.856473e-05 1.463199e-03 -2.141291e-03
2.746634e-05 1.469971e-03 -2.132684e-03
-1.002999e-05 1.475974e-03 -2.139079e-03
-2.261918e-05 1.473370e-03 -2.157591e-03
1.590442e-05 1.468792e-03 -2.148792e-03
3.381580e-05 1.472949e-03 -2.136146e-03
2.083190e-06 1.480593e-03 -2.140906e-03
-2.943852e-05 1.480863e-03 -2.159898e-03
-1.197981e-05 1.474751e-03 -2.157110e-03
2.357844e-05 1.472801e-03 -2.140666e-03
1.280422e-05 1.478286e-03 -2.126145e-03
-1.735214e-05 1.480363e-03 -2.151917e-03
-1.864996e-05 1.476613e-03 -2.164947e-03
1.493411e-05 1.473416e-03 -2.142060e-03
9.739041e-06 1.476976e-03 -2.137685e-03
-1.969947e-05 1.478864e-03 -2.152975e-03
-1.442285e-06 1.474550e-03 -2.159418e-03
3.006624e-05 1.474968e-03 -2.143839e-03
1.393085e-05 1.482064e-03 -2.131771e-03
-1.146158e-05 1.484666e-03 -2.145089e-03
-2.312008e-05 1.481852e-03 -2.165957e-03
6.613462e-06 1.477506e-03 -2.144031e-03
2.145017e-05 1.479209e-03 -2.123405e-03
-8.270159e-06 1.483205e-03 -2.136387e-03
-2.128246e-05 1.480735e-03 -2.157158e-03
1.096647e-05 1.476374e-03 -2.151869e-03
8.004903e-06 1.479431e-03 -2.134992e-03
-7.947253e-06 1.480911e-03 -2.140618e-03
-1.858352e-05 1.478710e-03 -2.157302e-03
1.853932e-05 1.474908e-03 -2.150474e-03
2.096321e-05 1.479599e-03 -2.140906e-03
-2.008250e-05 1.484344e-03 -2.140570e-03
-2.211306e-05 1.479354e-03 -2.158840e-03
6.544446e-06 1.474738e-03 -2.163841e-03
3.331161e-05 1.477203e-03 -2.130473e-03
7.913181e-06 1.484332e-03 -2.132733e-03
-2.551038e-05 1.485444e-03 -2.154609e-03
4.064533e-06 1.479813e-03 -2.157446e-03
2.096612e-05 1.481375e-03 -2.143887e-03
1.490252e-05 1.486285e-03 -2.137877e-03
-2.403228e-05 1.489255e-03 -2.152013e-03
-1.991931e-05 1.483796e-03 -2.158937e-03
1.538649e-05 1.479839e-03 -2.148840e-03
3.127423e-06 1.483684e-03 -2.131531e-03
-2.300381e-05 1.483707e-03 -2.140281e-03
-1.878192e-05 1.477947e-03 -2.153600e-03
1.164651e-05 1.473962e-03 -2.148888e-03
9.032447e-06 1.476962e-03 -2.131098e-03
-2.499697e-05 1.478392e-03 -2.135329e-03
-3.036295e-05 1.471978e-03 -2.154513e-03
6.171810e-06 1.465349e-03 -2.143503e-03
1.358422e-05 1.466880e-03 -2.126963e-03
-2.039415e-05 1.469269e-03 -2.127924e-03
-5.303906e-05 1.463642e-03 -2.165380e-03
-2.387748e-05 1.452270e-03 -2.152446e-03
1.615048e-06 1.447308e-03 -2.123068e-03
-2.114766e-05 1.446848e-03 -2.130377e-03
-4.521491e-05 1.441201e-03 -2.151869e-03
-1.920810e-05 1.431013e-03 -2.158456e-03
-6.186172e-07 1.427377e-03 -2.151628e-03
-2.134096e-05 1.427713e-03 -2.137877e-03
-7.306933e-05 1.422368e-03 -2.160572e-03
-3.404036e-05 1.406082e-03 -2.162639e-03
2.719688e-05 1.399128e-03 -2.147445e-03
2.658737e-05 1.405652e-03 -2.138839e-03
-1.096186e-05 1.411372e-03 -2.146676e-03
3.802873e-06 1.408675e-03 -2.162543e-03
3.921081e-05 1.410338e-03 -2.145618e-03
3.158788e-05 1.419547e-03 -2.130377e-03
1.461074e-05 1.426091e-03 -2.133550e-03
7.107339e-06 1.428690e-03 -2.156148e-03
5.857009e-05 1.430790e-03 -2.145426e-03
6.868947e-05 1.444471e-03 -2.134511e-03
2.224058e-05 1.459810e-03 -2.139271e-03
1.732552e-05 1.464437e-03 -2.159081e-03
4.159288e-05 1.468970e-03 -2.142733e-03
4.842619e-05 1.478629e-03 -2.122491e-03
1.800422e-05 1.488857e-03 -2.128982e-03
-1.126891e-05 1.492118e-03 -2.152975e-03
2.349902e-05 1.489805e-03 -2.154754e-03
4.942394e-05 1.495854e-03 -2.134896e-03
4.932720e-06 1.506929e-03 -2.144272e-03
-1.891223e-05 1.507887e-03 -2.169995e-03
1.351376e-06 1.504500e-03 -2.165524e-03
1.440549e-06 1.505853e-03 -2.141387e-03
-1.036069e-05 1.506163e-03 -2.138358e-03
-4.141398e-05 1.503319e-03 -2.150426e-03
-1.300698e-05 1.493808e-03 -2.161918e-03
3.706766e-05 1.491622e-03 -2.139079e-03
2.407902e-06 1.500030e-03 -2.127203e-03
-9.993518e-05 1.499671e-03 -2.156533e-03
-1.139937e-04 1.476948e-03 -2.154369e-03
-6.862830e-05 1.451151e-03 -2.130040e-03
-4.985054e-05 1.434875e-03 -2.121193e-03
-1.269562e-04 1.422308e-03 -2.136531e-03
-2.109325e-04 1.392525e-03 -2.155667e-03
-2.163190e-04 1.344493e-03 -2.144416e-03
-1.477499e-04 1.294916e-03 -2.134992e-03
1.043853e-04 1.260493e-03 -2.152350e-03
3.685801e-04 1.284640e-03 -2.161197e-03
4.725186e-04 1.370140e-03 -2.144897e-03
3.957796e-04 1.479094e-03 -2.122587e-03
3.077723e-04 1.569265e-03 -2.128453e-03
2.357819e-04 1.639188e-03 -2.150763e-03
1.739730e-04 1.693640e-03 -2.137877e-03
5.012121e-05 1.733591e-03 -2.132829e-03
-6.784590e-05 1.744770e-03 -2.137829e-03
-1.449149e-04 1.728754e-03 -2.161485e-03
-1.373889e-04 1.696082e-03 -2.161581e-03
-1.230698e-04 1.665415e-03 -2.131723e-03
-1.352046e-04 1.636729e-03 -2.132108e-03
-1.707208e-04 1.604980e-03 -2.161293e-03
-1.270931e-04 1.566304e-03 -2.162062e-03
-7.760628e-05 1.537973e-03 -2.142156e-03
-6.772572e-05 1.520207e-03 -2.135954e-03
-7.744509e-05 1.504155e-03 -2.149224e-03
-5.328701e-05 1.486344e-03 -2.164562e-03
-5.768386e-06 1.475030e-03 -2.142349e-03
-2.516317e-05 1.473798e-03 -2.133454e-03
-4.988644e-05 1.467460e-03 -2.142541e-03
-3.102966e-05 1.455672e-03 -2.154369e-03
4.617127e-06 1.448970e-03 -2.144128e-03
-4.462626e-06 1.450213e-03 -2.127636e-03
-4.034355e-05 1.448447e-03 -2.131531e-03
-3.957144e-05 1.438394e-03 -2.147205e-03
-2.546377e-06 1.429400e-03 -2.142445e-03
1.029439e-05 1.428965e-03 -2.128501e-03
-1.021952e-05 1.430728e-03 -2.143983e-03
-1.994540e-05 1.428192e-03 -2.168457e-03
2.013307e-06 1.424601e-03 -2.157014e-03
8.719546e-06 1.425827e-03 -2.126386e-03
-1.573699e-05 1.427157e-03 -2.136579e-03
-4.246995e-05 1.423022e-03 -2.165187e-03
-1.002595e-05 1.414042e-03 -2.164803e-03
1.965335e-05 1.412779e-03 -2.140618e-03
-6.458980e-06 1.417254e-03 -2.138262e-03
-3.182997e-05 1.415315e-03 -2.158216e-03
-5.751408e-07 1.408389e-03 -2.152686e-03
2.382194e-05 1.408706e-03 -2.129367e-03
-4.986447e-06 1.413666e-03 -2.134992e-03
-4.146167e-05 1.411965e-03 -2.151725e-03
-2.441624e-05 1.402516e-03 -2.155523e-03
1.513470e-05 1.397439e-03 -2.138166e-03
9.210215e-06 1.400816e-03 -2.131627e-03
-3.446056e-05 1.402272e-03 -2.152830e-03
-2.761537e-05 1.394464e-03 -2.158216e-03
1.793302e-05 1.388727e-03 -2.134319e-03
1.118570e-05 1.392589e-03 -2.133454e-03
-4.368567e-05 1.394620e-03 -2.162351e-03
-2.299976e-05 1.385089e-03 -2.168264e-03
8.532352e-06 1.380771e-03 -2.146291e-03
-3.987893e-06 1.382953e-03 -2.137925e-03
-4.503795e-05 1.381692e-03 -2.146676e-03
-5.240638e-05 1.371126e-03 -2.165957e-03
-1.512187e-05 1.359854e-03 -2.155138e-03
2.962565e-06 1.356914e-03 -2.148647e-03
-3.105855e-05 1.357712e-03 -2.161774e-03
-6.556443e-05 1.350964e-03 -2.167495e-03
-4.805891e-06 1.336604e-03 -2.150907e-03
5.340528e-06 1.335785e-03 -2.137733e-03
-3.358945e-05 1.336634e-03 -2.150523e-03
-3.526449e-05 1.328789e-03 -2.166678e-03
-1.194135e-05 1.321285e-03 -2.163456e-03
1.019191e-05 1.319298e-03 -2.139224e-03
-3.142728e-06 1.321334e-03 -2.134656e-03
-4.485059e-05 1.319769e-03 -2.171678e-03
-2.056781e-05 1.310199e-03 -2.172351e-03
1.527550e-05 1.306522e-03 -2.156436e-03
-4.606750e-06 1.310441e-03 -2.149320e-03
-2.302278e-05 1.309144e-03 -2.161245e-03
-1.722960e-05 1.304024e-03 -2.167351e-03
2.116280e-05 1.300778e-03 -2.150282e-03
3.123686e-05 1.305754e-03 -2.140858e-03
-1.147954e-05 1.312362e-03 -2.151484e-03
-1.469069e-05 1.309418e-03 -2.170332e-03
4.259671e-05 1.306799e-03 -2.155042e-03
6.153171e-05 1.316905e-03 -2.137060e-03
2.085585e-05 1.330367e-03 -2.145282e-03
1.324903e-05 1.334608e-03 -2.154513e-03
5.673265e-05 1.337715e-03 -2.143551e-03
6.339295e-05 1.350623e-03 -2.129511e-03
2.768696e-05 1.364308e-03 -2.135617e-03
-3.648990e-06 1.369777e-03 -2.166005e-03
4.836342e-05 1.369500e-03 -2.159321e-03
6.618346e-05 1.381202e-03 -2.134415e-03
3.574457e-05 1.395821e-03 -2.136098e-03
-8.471802e-06 1.403208e-03 -2.157350e-03
1.351283e-05 1.401417e-03 -2.153840e-03
5.022938e-05 1.404849e-03 -2.134319e-03
2.310405e-05 1.415867e-03 -2.130569e-03
-8.383072e-06 1.420188e-03 -2.148840e-03
2.415411e-06 1.418044e-03 -2.169707e-03
2.795969e-05 1.419617e-03 -2.143503e-03
1.322799e-05 1.425983e-03 -2.129751e-03
-1.538520e-05 1.428055e-03 -2.151484e-03
6.001810e-06 1.424410e-03 -2.160139e-03
3.720329e-05 1.426385e-03 -2.129559e-03
1.255564e-05 1.434348e-03 -2.121433e-03
-4.488654e-05 1.436017e-03 -2.148696e-03
-3.046257e-05 1.425487e-03 -2.172688e-03
2.985843e-05 1.419594e-03 -2.156485e-03
1.779785e-05 1.427087e-03 -2.131242e-03
-2.349991e-05 1.430449e-03 -2.140906e-03
-2.302614e-05 1.424493e-03 -2.160475e-03
1.054739e-05 1.419721e-03 -2.148551e-03
1.355023e-05 1.422440e-03 -2.127299e-03
-2.010796e-05 1.424749e-03 -2.134944e-03
-2.679035e-05 1.419362e-03 -2.160427e-03
-9.212774e-06 1.413709e-03 -2.155619e-03
1.692346e-05 1.412191e-03 -2.133358e-03
-1.116489e-05 1.415613e-03 -2.143503e-03
-2.874145e-05 1.412707e-03 -2.156821e-03
1.276417e-06 1.406394e-03 -2.161918e-03
1.571741e-05 1.407531e-03 -2.154609e-03
-2.032734e-05 1.411649e-03 -2.131915e-03
-4.167342e-05 1.406118e-03 -2.151292e-03
-1.230646e-05 1.396512e-03 -2.156869e-03
2.097403e-05 1.394245e-03 -2.134367e-03
9.190268e-06 1.398720e-03 -2.132252e-03
-2.081949e-05 1.400073e-03 -2.156725e-03
-1.349691e-05 1.395492e-03 -2.166534e-03
2.063896e-05 1.393329e-03 -2.148119e-03
1.878996e-05 1.398352e-03 -2.130040e-03
-1.688169e-05 1.401858e-03 -2.140858e-03
-9.204679e-06 1.397450e-03 -2.158648e-03
3.577789e-05 1.395884e-03 -2.141195e-03
2.377987e-05 1.404132e-03 -2.130905e-03
-1.014874e-05 1.408924e-03 -2.141387e-03
-1.797883e-05 1.406128e-03 -2.161822e-03
2.084372e-05 1.402644e-03 -2.150138e-03
8.772772e-06 1.407840e-03 -2.140377e-03
-1.539174e-05 1.409647e-03 -2.133358e-03
-2.469816e-05 1.405298e-03 -2.156196e-03
1.885838e-05 1.399967e-03 -2.152205e-03
1.912810e-05 1.404793e-03 -2.138935e-03
-1.573925e-05 1.408985e-03 -2.136867e-03
-3.225872e-05 1.404733e-03 -2.165428e-03
6.738595e-06 1.397998e-03 -2.155571e-03
2.586459e-05 1.400124e-03 -2.139945e-03
9.131413e-06 1.405943e-03 -2.143214e-03
-1.851338e-05 1.407720e-03 -2.162687e-03
-1.114652e-05 1.403960e-03 -2.162302e-03
2.418717e-05 1.402186e-03 -2.142108e-03
2.846162e-07 1.407721e-03 -2.130425e-03
-1.429866e-05 1.406919e-03 -2.148022e-03
5.477354e-06 1.403443e-03 -2.158312e-03
3.926843e-05 1.405280e-03 -2.143407e-03
2.164178e-05 1.414396e-03 -2.131915e-03
-3.355021e-05 1.418670e-03 -2.146676e-03
-2.552389e-05 1.410692e-03 -2.156148e-03
2.055782e-05 1.405238e-03 -2.143599e-03
2.216451e-05 1.410074e-03 -2.130377e-03
-2.353326e-05 1.414471e-03 -2.143070e-03
-2.060820e-05 1.408661e-03 -2.159466e-03
9.751484e-06 1.404458e-03 -2.145618e-03
2.162617e-05 1.406911e-03 -2.131915e-03
-1.452775e-05 1.411332e-03 -2.145666e-03
-2.525428e-05 1.407729e-03 -2.166774e-03
8.228145e-06 1.402711e-03 -2.151773e-03
2.934893e-05 1.405054e-03 -2.128550e-03
7.910662e-06 1.411154e-03 -2.136531e-03
-2.020857e-05 1.412349e-03 -2.161581e-03
2.818422e-06 1.408218e-03 -2.163601e-03
3.181078e-05 1.409804e-03 -2.136435e-03
-1.532710e-05 1.416843e-03 -2.145089e-03
-3.410582e-05 1.413071e-03 -2.166822e-03
1.873416e-06 1.405893e-03 -2.163937e-03
3.032524e-05 1.407203e-03 -2.133021e-03
1.362228e-05 1.413761e-03 -2.131771e-03
-2.722007e-05 1.416090e-03 -2.157879e-03
-2.924997e-06 1.410066e-03 -2.156004e-03
9.057381e-06 1.409864e-03 -2.144801e-03
3.345202e-06 1.412066e-03 -2.133261e-03
-2.360991e-05 1.412144e-03 -2.147974e-03
-1.089487e-05 1.406496e-03 -2.160427e-03
2.911588e-05 1.404614e-03 -2.131627e-03
1.703018e-05 1.410882e-03 -2.128021e-03
-3.384546e-05 1.413964e-03 -2.145522e-03
-3.406850e-05 1.405870e-03 -2.161437e-03
1.617834e-05 1.398656e-03 -2.144993e-03
2.838216e-05 1.402559e-03 -2.127684e-03
-1.094254e-05 1.408323e-03 -2.134031e-03
-2.073820e-05 1.405040e-03 -2.155812e-03
8.955284e-06 1.400638e-03 -2.143983e-03
2.663975e-05 1.402859e-03 -2.128501e-03
4.648276e-06 1.408359e-03 -2.132636e-03
-3.239143e-05 1.408664e-03 -2.162302e-03
-1.043300e-06 1.401837e-03 -2.156244e-03
2.100652e-05 1.402289e-03 -2.133887e-03
9.390276e-07 1.406779e-03 -2.143983e-03
-3.433023e-05 1.406756e-03 -2.158119e-03
-1.845980e-05 1.399252e-03 -2.151484e-03
1.684841e-05 1.395438e-03 -2.136819e-03
8.902064e-07 1.399135e-03 -2.132444e-03
-2.481945e-05 1.398640e-03 -2.151099e-03
-6.505784e-07 1.392983e-03 -2.159658e-03
3.457714e-05 1.393575e-03 -2.142541e-03
8.728202e-06 1.401634e-03 -2.131915e-03
-3.588732e-05 1.402976e-03 -2.150955e-03
-2.769965e-05 1.394741e-03 -2.166726e-03
1.643110e-05 1.389364e-03 -2.146051e-03
2.118573e-05 1.393407e-03 -2.123789e-03
-5.892693e-06 1.397311e-03 -2.129559e-03
-1.472341e-05 1.395035e-03 -2.152879e-03
2.042416e-05 1.392006e-03 -2.141195e-03
1.707634e-05 1.396796e-03 -2.132444e-03
-2.194060e-05 1.400233e-03 -2.141916e-03
-1.738308e-05 1.394858e-03 -2.147397e-03
8.356367e-08 1.390950e-03 -2.143743e-03
1.499630e-05 1.391183e-03 -2.135665e-03
-1.126325e-05 1.394363e-03 -2.146340e-03
-3.822911e-05 1.391663e-03 -2.166149e-03
-1.446209e-05 1.383715e-03 -2.163312e-03
-1.240353e-05 1.381417e-03 -2.140618e-03
-4.737142e-05 1.378496e-03 -2.137108e-03
-7.111459e-05 1.367044e-03 -2.158696e-03
-1.888070e-05 1.351112e-03 -2.150811e-03
-8.923292e-06 1.347164e-03 -2.139416e-03
-2.821470e-05 1.345012e-03 -2.141387e-03
-4.918396e-05 1.338190e-03 -2.156917e-03
-2.922074e-05 1.327170e-03 -2.164129e-03
1.146131e-06 1.321372e-03 -2.137444e-03
-4.747679e-07 1.321455e-03 -2.130184e-03
-2.147765e-05 1.320533e-03 -2.154609e-03
-1.885116e-06 1.315749e-03 -2.158600e-03
4.509462e-05 1.315936e-03 -2.139608e-03
3.486482e-05 1.326262e-03 -2.124270e-03
-1.024374e-05 1.333291e-03 -2.137541e-03
-1.013425e-05 1.330344e-03 -2.160139e-03
4.167221e-05 1.328687e-03 -2.138214e-03
6.233069e-05 1.338223e-03 -2.118212e-03
2.618200e-05 1.351389e-03 -2.141916e-03
1.220391e-05 1.357049e-03 -2.163408e-03
4.946706e-05 1.360655e-03 -2.145811e-03
5.389685e-05 1.372332e-03 -2.134800e-03
1.620049e-05 1.384354e-03 -2.152205e-03
3.286878e-06 1.388180e-03 -2.160812e-03
2.850682e-05 1.389548e-03 -2.141868e-03
4.278328e-05 1.396188e-03 -2.131627e-03
6.657707e-07 1.405561e-03 -2.140377e-03
-1.658468e-05 1.405311e-03 -2.159418e-03
1.380503e-05 1.401991e-03 -2.159466e-03
3.818564e-05 1.405977e-03 -2.149224e-03
1.254070e-05 1.415082e-03 -2.138743e-03
-4.078062e-05 1.417487e-03 -2.151196e-03
-2.904193e-05 1.408152e-03 -2.158648e-03
1.794793e-05 1.402175e-03 -2.137637e-03
5.088612e-06 1.406139e-03 -2.126722e-03
-2.925059e-05 1.406341e-03 -2.153744e-03
-1.659265e-05 1.399741e-03 -2.163745e-03
-1.456777e-05 1.396803e-03 -2.145955e-03
-8.120852e-05 1.393678e-03 -2.125039e-03
-1.348983e-04 1.373996e-03 -2.137156e-03
-9.415618e-05 1.342341e-03 -2.148551e-03
-6.507889e-05 1.320861e-03 -2.134608e-03
-1.471117e-04 1.305674e-03 -2.127059e-03
-2.442214e-04 1.271041e-03 -2.142301e-03
-2.512509e-04 1.214507e-03 -2.165332e-03
-2.302902e-05 1.157598e-03 -2.146868e-03
2.936917e-04 1.152635e-03 -2.131242e-03
4.471980e-04 1.219677e-03 -2.139945e-03
3.944879e-04 1.322151e-03 -2.159995e-03
3.705116e-04 1.413537e-03 -2.150474e-03
3.486787e-04 1.499269e-03 -2.127059e-03
2.140249e-04 1.578822e-03 -2.133694e-03
3.603866e-05 1.627374e-03 -2.161245e-03
-4.551066e-05 1.636274e-03 -2.157302e-03
-8.383448e-05 1.626564e-03 -2.139416e-03
-1.311683e-04 1.607209e-03 -2.135329e-03
-1.857075e-04 1.576453e-03 -2.157975e-03
-1.581034e-04 1.534135e-03 -2.162062e-03
-1.166679e-04 1.498663e-03 -2.151484e-03
-9.794075e-05 1.472291e-03 -2.134896e-03
-1.192335e-04 1.449156e-03 -2.152879e-03
-9.208712e-05 1.421817e-03 -2.165187e-03
-2.985570e-05 1.401561e-03 -2.142830e-03
-3.200580e-05 1.394768e-03 -2.130809e-03
-6.187349e-05 1.386651e-03 -2.153023e-03
-4.754264e-05 1.372465e-03 -2.168553e-03
-1.370131e-05 1.362520e-03 -2.151292e-03
-1.194143e-05 1.359798e-03 -2.131771e-03
-3.816340e-05 1.356354e-03 -2.150715e-03
-4.366070e-05 1.347476e-03 -2.163649e-03
-9.437861e-07 1.338127e-03 -2.139416e-03
5.042547e-06 1.337813e-03 -2.120183e-03
-3.022448e-05 1.337837e-03 -2.139560e-03
-3.290699e-05 1.330327e-03 -2.165668e-03
6.881893e-07 1.323513e-03 -2.155475e-03
2.645028e-05 1.324292e-03 -2.124992e-03
-1.309470e-06 1.329549e-03 -2.124030e-03
-3.735445e-05 1.328043e-03 -2.158985e-03
-7.010252e-06 1.319864e-03 -2.163312e-03
2.475706e-05 1.319205e-03 -2.141964e-03
-8.213610e-06 1.324866e-03 -2.142108e-03
-4.564807e-05 1.322585e-03 -2.159129e-03
-8.086851e-06 1.312431e-03 -2.158792e-03
2.972822e-05 1.311253e-03 -2.142301e-03
4.859241e-06 1.318092e-03 -2.137493e-03
-3.969439e-05 1.318651e-03 -2.151869e-03
-1.751225e-05 1.309499e-03 -2.162254e-03
1.714026e-05 1.306244e-03 -2.138743e-03
2.128040e-06 1.310053e-03 -2.121914e-03
-5.171966e-05 1.309329e-03 -2.152879e-03
-2.452696e-05 1.297426e-03 -2.164658e-03
2.331779e-05 1.292613e-03 -2.142830e-03
1.061236e-05 1.298059e-03 -2.134271e-03
-2.827788e-05 1.299926e-03 -2.142108e-03
-4.074414e-05 1.292920e-03 -2.166341e-03
-3.440683e-06 1.284369e-03 -2.156388e-03
4.701177e-06 1.284257e-03 -2.132492e-03
-3.183792e-05 1.284735e-03 -2.147590e-03
-3.940133e-05 1.277152e-03 -2.167111e-03
-5.779309e-06 1.268869e-03 -2.158312e-03
4.684355e-06 1.268263e-03 -2.136098e-03
-2.131246e-05 1.268920e-03 -2.143455e-03
-4.701293e-05 1.263561e-03 -2.165860e-03
-6.947959e-06 1.253354e-03 -2.163024e-03
1.221393e-05 1.252607e-03 -2.147974e-03
-5.259615e-06 1.255560e-03 -2.137973e-03
-6.161981e-05 1.253646e-03 -2.164466e-03
-4.937506e-05 1.239911e-03 -2.172832e-03
-4.186606e-06 1.229726e-03 -2.144945e-03
-9.928759e-06 1.228736e-03 -2.144753e-03
-4.930855e-05 1.226045e-03 -2.161293e-03
-3.902914e-05 1.214900e-03 -2.166870e-03
1.507075e-05 1.206717e-03 -2.147349e-03
7.103424e-06 1.210262e-03 -2.136964e-03
-4.225320e-05 1.211152e-03 -2.158792e-03
-3.257117e-05 1.201470e-03 -2.166630e-03
1.556679e-05 1.194682e-03 -2.142974e-03
3.166801e-05 1.198150e-03 -2.130521e-03
-1.179979e-05 1.204499e-03 -2.152494e-03
-1.846799e-05 1.201551e-03 -2.171630e-03
3.992913e-05 1.198159e-03 -2.157350e-03
4.303566e-05 1.207889e-03 -2.140185e-03
6.787419e-06 1.217357e-03 -2.149801e-03
1.208875e-06 1.218560e-03 -2.163264e-03
5.407656e-05 1.219254e-03 -2.145666e-03
6.893196e-05 1.231709e-03 -2.138983e-03
3.184660e-05 1.247158e-03 -2.148503e-03
1.454496e-05 1.254122e-03 -2.161918e-03
5.117217e-05 1.257787e-03 -2.161293e-03
6.788916e-05 1.270256e-03 -2.142733e-03
2.746789e-05 1.285674e-03 -2.151484e-03
4.309938e-06 1.291764e-03 -2.167543e-03
2.682385e-05 1.293242e-03 -2.159995e-03
5.765465e-05 1.299962e-03 -2.134319e-03
2.877532e-05 1.312687e-03 -2.132444e-03
-2.228300e-05 1.318309e-03 -2.152542e-03
-1.055307e-05 1.312973e-03 -2.163264e-03
3.829475e-05 1.311197e-03 -2.140618e-03
3.477455e-05 1.319813e-03 -2.124270e-03
3.034261e-06 1.326552e-03 -2.142926e-03
1.375929e-05 1.326646e-03 -2.159995e-03
4.498251e-05 1.330328e-03 -2.139704e-03
2.590839e-05 1.340556e-03 -2.118549e-03
-3.088593e-05 1.345134e-03 -2.152590e-03
-3.229961e-05 1.337894e-03 -2.158889e-03
1.805692e-05 1.330906e-03 -2.134127e-03
2.802240e-05 1.334740e-03 -2.124992e-03
-1.338612e-05 1.340231e-03 -2.140137e-03
-2.291974e-05 1.336543e-03 -2.160187e-03
2.906091e-05 1.331778e-03 -2.143551e-03
3.329222e-05 1.338605e-03 -2.136194e-03
-1.545357e-05 1.345906e-03 -2.150282e-03
-5.144680e-05 1.342232e-03 -2.166966e-03
-9.795763e-06 1.331112e-03 -2.163024e-03
9.027583e-06 1.329790e-03 -2.144705e-03
2.929276e-06 1.331898e-03 -2.143647e-03
-2.730211e-05 1.332174e-03 -2.155859e-03
-1.315208e-05 1.326054e-03 -2.158504e-03
1.473587e-05 1.323697e-03 -2.149994e-03
-8.714436e-06 1.327386e-03 -2.141868e-03
-3.340944e-05 1.324915e-03 -2.155763e-03
-2.281431e-05 1.317301e-03 -2.170236e-03
1.813618e-05 1.313133e-03 -2.149946e-03
1.991821e-05 1.317601e-03 -2.140377e-03
-2.110227e-05 1.321695e-03 -2.157062e-03
-6.416392e-06 1.316914e-03 -2.164803e-03
2.194320e-05 1.316202e-03 -2.146195e-03
8.970191e-06 1.321386e-03 -2.132108e-03
-2.911826e-05 1.322643e-03 -2.143936e-03
-2.317085e-05 1.315398e-03 -2.169611e-03
2.508846e-05 1.310941e-03 -2.150474e-03
1.524571e-05 1.317033e-03 -2.133550e-03
-2.455422e-05 1.319858e-03 -2.147590e-03
-2.247311e-05 1.313835e-03 -2.160379e-03
2.065633e-05 1.309074e-03 -2.150811e-03
3.576978e-05 1.314154e-03 -2.132059e-03
-3.567603e-06 1.321711e-03 -2.143022e-03
-2.283698e-05 1.320353e-03 -2.165139e-03
1.602280e-05 1.315679e-03 -2.151436e-03
2.660762e-05 1.319710e-03 -2.140137e-03
1.024204e-05 1.325595e-03 -2.135377e-03
-2.028200e-05 1.327126e-03 -2.161052e-03
1.212833e-05 1.322795e-03 -2.163841e-03
3.261963e-05 1.326440e-03 -2.140762e-03
5.324480e-06 1.333782e-03 -2.140041e-03
-2.039818e-05 1.334406e-03 -2.162399e-03
5.465386e-06 1.330035e-03 -2.171678e-03
2.392479e-05 1.332394e-03 -2.153840e-03
1.174517e-05 1.338276e-03 -2.153985e-03
-3.137482e-05 1.341007e-03 -2.158552e-03
-1.175084e-05 1.333837e-03 -2.164658e-03
3.111666e-05 1.331789e-03 -2.148455e-03
1.673533e-05 1.339103e-03 -2.133358e-03
-2.267308e-05 1.342114e-03 -2.144031e-03
-9.432288e-07 1.336299e-03 -2.161966e-03
1.866866e-05 1.336592e-03 -2.151148e-03
1.250997e-05 1.341165e-03 -2.138262e-03
-2.256759e-05 1.343500e-03 -2.146436e-03
-1.852658e-05 1.337824e-03 -2.165716e-03
3.125407e-05 1.334153e-03 -2.156725e-03
2.872599e-05 1.341873e-03 -2.141964e-03
5.838412e-06 1.348173e-03 -2.147205e-03
-2.440949e-05 1.349091e-03 -2.173217e-03
-1.187903e-05 1.344302e-03 -2.165812e-03
1.386537e-05 1.342406e-03 -2.142589e-03
1.637789e-06 1.345305e-03 -2.148551e-03
-2.893390e-05 1.345298e-03 -2.168649e-03
-2.708547e-06 1.339171e-03 -2.169130e-03
2.912231e-05 1.339458e-03 -2.148311e-03
7.516622e-06 1.346158e-03 -2.142301e-03
-2.456896e-05 1.347231e-03 -2.165524e-03
4.961518e-06 1.341885e-03 -2.165908e-03
2.798742e-05 1.343718e-03 -2.156485e-03
2.892041e-05 1.350526e-03 -2.137637e-03
-1.716709e-05 1.356369e-03 -2.160475e-03
-1.530257e-05 1.352438e-03 -2.178073e-03
2.379439e-05 1.350027e-03 -2.154850e-03
3.950294e-06 1.355783e-03 -2.136579e-03
-2.068562e-05 1.355850e-03 -2.142108e-03
-1.976604e-05 1.350266e-03 -2.168889e-03
1.043753e-05 1.346362e-03 -2.155908e-03
2.932280e-05 1.349114e-03 -2.131386e-03
-8.728654e-08 1.354916e-03 -2.135714e-03
-1.410834e-05 1.353839e-03 -2.165524e-03
1.566419e-05 1.351041e-03 -2.168072e-03
3.662062e-05 1.355567e-03 -2.136291e-03
-6.367534e-06 1.363360e-03 -2.150474e-03
-2.363232e-05 1.361488e-03 -2.176438e-03
2.025066e-05 1.356887e-03 -2.173842e-03
3.389474e-05 1.362668e-03 -2.147109e-03
3.820781e-06 1.370336e-03 -2.146340e-03
-3.608882e-05 1.370628e-03 -2.171197e-03
-1.590272e-05 1.362798e-03 -2.174996e-03
7.162956e-06 1.360167e-03 -2.148696e-03
-1.170599e-05 1.361727e-03 -2.137685e-03
-2.578000e-05 1.358059e-03 -2.158937e-03
-7.752699e-06 1.352004e-03 -2.177207e-03
2.243170e-05 1.351293e-03 -2.151340e-03
1.032340e-05 1.356526e-03 -2.142253e-03
-3.222135e-05 1.358201e-03 -2.158071e-03
-8.627687e-06 1.350571e-03 -2.169611e-03
2.438932e-05 1.349240e-03 -2.154609e-03
2.594968e-05 1.355083e-03 -2.139224e-03
-1.266331e-05 1.360328e-03 -2.151292e-03
-4.352701e-06 1.356922e-03 -2.164370e-03
2.999135e-05 1.356283e-03 -2.150523e-03
2.852361e-05 1.363279e-03 -2.136675e-03
-1.715609e-05 1.369100e-03 -2.154754e-03
-2.693430e-05 1.364838e-03 -2.167976e-03
1.853563e-05 1.359083e-03 -2.154273e-03
2.454939e-05 1.363600e-03 -2.144705e-03
4.910121e-06 1.368959e-03 -2.139608e-03
-3.224015e-05 1.369183e-03 -2.169082e-03
-7.559183e-06 1.362196e-03 -2.174275e-03
2.263640e-05 1.361522e-03 -2.150474e-03
-2.721531e-06 1.366734e-03 -2.143983e-03
-3.177144e-05 1.365396e-03 -2.158937e-03
-6.477743e-06 1.357989e-03 -2.168264e-03
1.839565e-05 1.357252e-03 -2.148214e-03
-1.059665e-05 1.361435e-03 -2.142445e-03
-4.457911e-05 1.358250e-03 -2.166774e-03
-2.143251e-05 1.348182e-03 -2.168361e-03
4.125519e-06 1.343923e-03 -2.142060e-03
-1.612643e-05 1.344558e-03 -2.140041e-03
-5.498902e-05 1.340052e-03 -2.164803e-03
-4.964234e-05 1.327445e-03 -2.176871e-03
-6.703490e-07 1.316938e-03 -2.155667e-03
-1.911279e-05 1.317062e-03 -2.140618e-03
-4.993671e-05 1.311921e-03 -2.158696e-03
-3.546067e-05 1.300186e-03 -2.170957e-03
1.614510e-05 1.292622e-03 -2.155090e-03
4.316197e-05 1.296617e-03 -2.138118e-03
1.710130e-05 1.305898e-03 -2.147686e-03
1.891316e-06 1.309232e-03 -2.168793e-03
2.797812e-05 1.310167e-03 -2.166245e-03
4.922594e-05 1.317383e-03 -2.150234e-03
2.009473e-05 1.328676e-03 -2.146676e-03
1.075189e-05 1.332681e-03 -2.167399e-03
5.160594e-05 1.335533e-03 -2.159995e-03
6.239164e-05 1.347922e-03 -2.150763e-03
4.023064e-05 1.362342e-03 -2.153792e-03
9.968465e-06 1.371353e-03 -2.182449e-03
4.228674e-05 1.374614e-03 -2.164995e-03
5.616211e-05 1.384972e-03 -2.155571e-03
8.928128e-06 1.398165e-03 -2.154080e-03
-3.307931e-05 1.399928e-03 -2.171390e-03
5.532520e-06 1.392617e-03 -2.164178e-03
3.132971e-05 1.394322e-03 -2.147397e-03
2.208450e-05 1.401404e-03 -2.147734e-03
-1.817326e-05 1.405985e-03 -2.165668e-03
-8.260415e-06 1.401842e-03 -2.165139e-03
1.966209e-05 1.400317e-03 -2.148455e-03
3.357899e-06 1.404745e-03 -2.142108e-03
-3.828647e-05 1.404798e-03 -2.152302e-03
-2.138017e-05 1.395393e-03 -2.169466e-03
1.871986e-05 1.390969e-03 -2.153311e-03
9.930288e-06 1.395432e-03 -2.136291e-03
-5.938710e-05 1.396858e-03 -2.144849e-03
-1.145548e-04 1.382261e-03 -2.165428e-03
-4.946960e-05 1.355977e-03 -2.159273e-03
-1.190266e-05 1.344903e-03 -2.130905e-03
-1.045923e-04 1.341141e-03 -2.141291e-03
-2.057163e-04 1.315956e-03 -2.171053e-03
-2.128183e-04 1.268727e-03 -2.163024e-03
-1.378866e-04 1.219856e-03 -2.150955e-03
1.303180e-04 1.187777e-03 -2.155427e-03
3.325522e-04 1.217823e-03 -2.174611e-03
3.918132e-04 1.295737e-03 -2.171197e-03
3.238366e-04 1.387657e-03 -2.143310e-03
2.842744e-04 1.462560e-03 -2.136771e-03
2.406364e-04 1.527594e-03 -2.168793e-03
1.736658e-04 1.583842e-03 -2.169515e-03
6.977469e-05 1.624939e-03 -2.154946e-03
-4.915753e-05 1.641363e-03 -2.156485e-03
-1.380654e-04 1.629829e-03 -2.176727e-03
-1.344675e-04 1.598345e-03 -2.179131e-03
-1.175728e-04 1.568131e-03 -2.146916e-03
-1.301959e-04 1.540606e-03 -2.140858e-03
-1.418351e-04 1.509549e-03 -2.160860e-03
-1.112737e-04 1.476440e-03 -2.178938e-03
-7.227670e-05 1.451531e-03 -2.157927e-03
-4.983423e-05 1.435002e-03 -2.145907e-03
-8.343636e-05 1.422879e-03 -2.152638e-03
-8.197919e-05 1.402959e-03 -2.167111e-03
-3.324680e-05 1.384277e-03 -2.153071e-03
-2.018985e-05 1.376605e-03 -2.148743e-03
-3.156419e-05 1.371584e-03 -2.155763e-03
-4.008828e-05 1.363904e-03 -2.167688e-03
-1.739331e-06 1.354933e-03 -2.159081e-03
1.378715e-05 1.354841e-03 -2.142926e-03
-1.707091e-05 1.357523e-03 -2.152302e-03
-5.734294e-05 1.353080e-03 -2.183073e-03
-1.568719e-05 1.340705e-03 -2.174275e-03
2.694312e-05 1.337983e-03 -2.145570e-03
6.650294e-06 1.343851e-03 -2.148214e-03
-2.918769e-05 1.344735e-03 -2.176679e-03
-7.696978e-06 1.338533e-03 -2.184900e-03
2.197034e-05 1.338052e-03 -2.154946e-03
6.214159e-06 1.343182e-03 -2.146676e-03
-3.324742e-05 1.343889e-03 -2.176342e-03
-2.074630e-05 1.336629e-03 -2.177256e-03
1.186544e-05 1.332674e-03 -2.156292e-03
5.767008e-06 1.335503e-03 -2.148599e-03
-4.455648e-05 1.336206e-03 -2.171294e-03
-3.710198e-05 1.326012e-03 -2.180333e-03
2.129866e-05 1.318288e-03 -2.149128e-03
1.385577e-05 1.322990e-03 -2.144945e-03
-2.314292e-05 1.325467e-03 -2.168745e-03
-2.119584e-05 1.320106e-03 -2.189949e-03
-1.105875e-06 1.316412e-03 -2.161148e-03
5.477765e-06 1.316415e-03 -2.143503e-03
-3.486629e-05 1.316900e-03 -2.158456e-03
-4.135167e-05 1.308337e-03 -2.177207e-03
7.720933e-06 1.299315e-03 -2.171005e-03
3.621522e-05 1.301785e-03 -2.153744e-03
3.838765e-06 1.309929e-03 -2.160475e-03
-4.787444e-05 1.310435e-03 -2.185477e-03
-2.689568e-05 1.300131e-03 -2.179612e-03
1.061770e-06 1.294819e-03 -2.163120e-03
-1.362612e-05 1.295179e-03 -2.163072e-03
-3.722105e-05 1.291704e-03 -2.180189e-03
-1.661028e-05 1.283498e-03 -2.186439e-03
8.451009e-06 1.280747e-03 -2.166389e-03
-2.716139e-05 1.282943e-03 -2.165043e-03
-5.399162e-05 1.276357e-03 -2.184852e-03
-2.886361e-05 1.264307e-03 -2.189661e-03
1.406742e-05 1.258687e-03 -2.175044e-03
-1.928031e-06 1.262518e-03 -2.164274e-03
-4.097164e-05 1.261751e-03 -2.175765e-03
-1.478929e-05 1.252204e-03 -2.184997e-03
4.476349e-06 1.249527e-03 -2.164562e-03
-5.989629e-06 1.250617e-03 -2.158408e-03
-2.855532e-05 1.248661e-03 -2.163360e-03
-2.208428e-05 1.241420e-03 -2.181246e-03
1.818263e-05 1.236781e-03 -2.178025e-03
1.736140e-05 1.241690e-03 -2.152638e-03
-5.093097e-06 1.245008e-03 -2.151580e-03
-3.202886e-05 1.242711e-03 -2.187737e-03
8.825877e-06 1.235945e-03 -2.180381e-03
2.780334e-05 1.238749e-03 -2.162639e-03
1.273788e-05 1.245015e-03 -2.161677e-03
-3.590163e-06 1.247351e-03 -2.185477e-03
1.961385e-05 1.247034e-03 -2.179467e-03
4.634866e-05 1.252273e-03 -2.160091e-03
3.187263e-05 1.262806e-03 -2.167880e-03
4.489472e-06 1.269900e-03 -2.180862e-03
2.240570e-05 1.271167e-03 -2.187545e-03
5.961635e-05 1.277327e-03 -2.165139e-03
4.202750e-05 1.291213e-03 -2.166389e-03
4.195959e-06 1.300628e-03 -2.184179e-03
1.125607e-05 1.301886e-03 -2.189228e-03
5.777720e-05 1.305418e-03 -2.162158e-03
4.159965e-05 1.318758e-03 -2.160908e-03
-1.587297e-06 1.327856e-03 -2.183891e-03
1.006336e-05 1.327697e-03 -2.187112e-03
3.357611e-05 1.330773e-03 -2.166149e-03
3.724900e-05 1.338639e-03 -2.148599e-03
-7.040982e-06 1.346243e-03 -2.169515e-03
-7.796737e-06 1.344163e-03 -2.181727e-03
4.295608e-05 1.342789e-03 -2.158312e-03
3.881462e-05 1.352555e-03 -2.151148e-03
-1.521893e-05 1.360768e-03 -2.161581e-03
-2.650379e-05 1.356475e-03 -2.185333e-03
1.758461e-05 1.350851e-03 -2.164562e-03
2.121122e-05 1.355014e-03 -2.144945e-03
-5.339674e-06 1.358967e-03 -2.153503e-03
-2.467459e-05 1.356713e-03 -2.179660e-03
