-6.470735e-01 0.000000e+00 7.397102e-06
-1.108505e+00 -1.770300e-06 -2.638281e-06
-1.519846e+00 -2.787096e-06 -3.758977e-06
-1.384289e+00 -4.329186e-06 5.911439e-06
-1.210188e+00 -4.256860e-06 -1.613038e-06
-1.101818e+00 -3.432694e-06 -2.832651e-07
-1.360857e+00 -4.113853e-06 -3.153291e-06
-1.274120e+00 -5.884000e-06 -1.921855e-06
-1.040089e+00 -4.784196e-06 -7.864011e-06
-1.075200e+00 -7.182182e-06 -5.060406e-06
-1.273683e+00 -1.185499e-05 -4.495123e-06
-1.335065e+00 -1.756383e-05 -4.168928e-06
-1.179612e+00 -2.282721e-05 -5.607294e-06
-9.942771e-01 -3.088141e-05 -5.717926e-06
-1.031283e+00 -4.053287e-05 2.459338e-06
-1.112710e+00 -3.393184e-05 4.061707e-06
-9.611485e-01 -2.625385e-05 -2.638557e-06
-8.458888e-01 -2.908114e-05 -1.222105e-06
-1.050278e+00 -2.982742e-05 -6.794910e-06
-9.484480e-01 -4.755603e-05 5.851744e-06
-8.745187e-01 -3.117490e-05 5.622404e-06
-9.160328e-01 -1.920135e-05 -4.011853e-06
-8.942533e-01 -3.000469e-05 -1.212852e-05
-8.153483e-01 -6.039362e-05 -3.458588e-06
-7.628924e-01 -6.470869e-05 7.682296e-06
-7.422766e-01 -4.019309e-05 5.311086e-06
-6.765885e-01 -2.834732e-05 -1.500960e-06
-6.626266e-01 -3.345562e-05 -2.976391e-06
-6.157723e-01 -4.034550e-05 -1.842549e-06
-5.419917e-01 -3.886605e-05 3.742987e-06
-7.685059e-01 -2.388899e-05 -6.123886e-06
-7.875137e-01 -4.938391e-05 -5.722955e-06
-6.789269e-01 -6.969141e-05 -9.605455e-06
-4.401461e-01 -8.990484e-05 -3.914357e-06
-2.923053e-01 -7.984777e-05 -9.654570e-07
-4.680016e-01 -7.180901e-05 -2.183239e-06
-6.577998e-01 -9.293175e-05 -1.045098e-05
-6.031858e-01 -1.397217e-04 -5.052351e-06
-3.950087e-01 -1.425211e-04 4.923578e-06
-3.145760e-01 -9.607452e-05 6.351656e-06
-1.562075e-01 -6.786811e-05 1.742889e-06
-3.301866e-01 -6.971697e-05 -8.178420e-07
-5.633980e-01 -8.903003e-05 -4.102672e-06
-5.815536e-01 -1.075609e-04 2.758848e-06
-5.707818e-01 -7.988473e-05 -2.665761e-06
-5.741636e-01 -8.518874e-05 -8.917906e-06
-3.558159e-01 -1.322830e-04 -8.436665e-07
-2.307632e-01 -1.301595e-04 8.883797e-06
-3.362061e-01 -7.283989e-05 1.127539e-06
-3.544320e-01 -5.813964e-05 2.810632e-06
-4.620765e-01 -5.703148e-05 5.533588e-06
-3.523010e-01 -5.769036e-05 3.205496e-06
-2.574685e-01 -4.154524e-05 5.850493e-06
-1.450285e-01 -3.659744e-06 7.043546e-06
-2.982263e-01 2.331259e-05 3.826519e-06
-2.240565e-01 1.119630e-05 3.628730e-06
-2.016448e-01 1.558237e-05 -7.340129e-06
-1.150768e-01 -3.539868e-06 -4.146232e-06
-1.120583e-01 3.825412e-07 4.296885e-06
4.820727e-02 1.855519e-05 -1.079880e-06
3.219313e-01 2.098382e-05 2.931029e-06
2.068564e-01 6.128798e-05 -2.646791e-06
2.326978e-01 5.718665e-05 -2.943338e-06
3.083985e-01 4.712861e-05 1.381446e-06
4.799416e-01 6.076994e-05 7.622433e-06
6.262283e-01 9.739116e-05 5.559634e-06
7.210148e-01 1.242342e-04 3.901274e-06
9.559066e-01 1.440065e-04 6.065118e-06
1.000771e+00 1.883978e-04 3.735846e-06
1.159053e+00 2.089007e-04 6.701423e-06
1.293101e+00 2.523261e-04 5.280218e-06
1.263204e+00 2.872572e-04 3.727869e-06
1.209079e+00 3.060544e-04 6.126304e-06
1.295941e+00 3.455412e-04 8.737918e-06
1.224770e+00 4.150768e-04 6.459731e-06
1.260617e+00 4.572004e-04 8.830140e-06
1.247789e+00 5.101603e-04 7.284109e-06
1.238326e+00 5.492414e-04 7.736071e-06
1.261382e+00 6.082081e-04 1.365009e-05
1.176971e+00 7.408619e-04 8.477695e-06
1.212130e+00 8.167119e-04 9.711743e-06
1.202119e+00 9.092989e-04 9.515648e-06
1.055086e+00 1.008091e-03 3.196713e-06
9.306711e-01 1.019177e-03 -1.696200e-06
9.115653e-01 9.794806e-04 -3.932743e-06
9.023372e-01 9.286687e-04 3.283566e-06
8.629087e-01 9.535513e-04 6.633019e-06
7.740176e-01 1.017988e-03 -4.554660e-06
7.114007e-01 9.466967e-04 8.582468e-07
5.481888e-01 9.231516e-04 -1.521695e-07
6.213916e-01 8.832143e-04 3.756360e-06
6.347729e-01 9.204360e-04 1.448523e-06
4.882915e-01 9.235146e-04 -2.836631e-06
3.716318e-01 8.443756e-04 -9.337317e-06
4.196963e-01 6.991017e-04 7.037988e-08
4.282960e-01 6.895714e-04 -3.234012e-07
3.877500e-01 6.789561e-04 4.064436e-06
4.497959e-01 6.781419e-04 5.984316e-06
3.680575e-01 6.922290e-04 1.056900e-06
3.853403e-01 6.607351e-04 8.877293e-06
3.432136e-01 7.426740e-04 8.270333e-06
3.271026e-01 7.992296e-04 3.840077e-06
3.169583e-01 7.801479e-04 7.088315e-06
1.969649e-01 7.936833e-04 2.133938e-06
2.651346e-01 7.491638e-04 9.813928e-06
1.617134e-01 8.332062e-04 6.162702e-06
1.806437e-01 8.433923e-04 2.949977e-06
8.765635e-03 8.038562e-04 -5.520354e-06
4.383772e-02 6.449630e-04 -1.324854e-06
4.620968e-02 5.720412e-04 -7.072587e-06
6.474676e-02 4.483972e-04 -8.768006e-06
1.643567e-01 3.036245e-04 -2.125704e-06
2.473702e-02 2.418865e-04 -3.333337e-06
-1.837363e-02 1.367028e-04 -6.583259e-06
2.385545e-02 1.402126e-05 -6.557959e-06
1.032295e-01 -8.388934e-05 -4.038320e-06
1.289535e-01 -1.534044e-04 -7.221188e-06
1.938310e-01 -2.542666e-04 -1.606628e-06
2.032381e-01 -2.769183e-04 -1.700631e-06
2.365394e-01 -2.997405e-04 4.217954e-06
5.845711e-02 -2.462874e-04 -4.339829e-06
-5.368316e-02 -3.228236e-04 -1.621350e-05
2.572750e-02 -5.552521e-04 -1.021474e-05
1.612180e-01 -6.812241e-04 -6.373102e-06
1.310837e-01 -7.318724e-04 -4.886628e-06
9.439901e-02 -7.694897e-04 -2.414429e-06
4.820940e-02 -7.968913e-04 -6.760063e-06
6.724166e-02 -9.006980e-04 -5.592057e-06
9.035105e-03 -9.754433e-04 -1.166704e-05
7.845220e-02 -1.107056e-03 -6.072984e-07
1.187660e-01 -1.101998e-03 3.329885e-06
9.405737e-02 -1.056265e-03 -1.166143e-06
1.057932e-01 -1.064764e-03 -5.980373e-06
1.289400e-01 -1.126364e-03 -1.412202e-06
1.904556e-01 -1.137695e-03 -5.804916e-06
4.889356e-02 -1.180939e-03 -1.210784e-05
-8.633830e-03 -1.320226e-03 -1.461699e-05
1.543091e-02 -1.481272e-03 -1.227170e-05
9.652364e-02 -1.575360e-03 -7.889375e-06
1.740778e-01 -1.590722e-03 1.166137e-06
1.039793e-01 -1.505770e-03 -5.545876e-06
1.592708e-01 -1.541135e-03 -1.199072e-06
1.577563e-01 -1.510350e-03 -4.109189e-07
5.289327e-02 -1.448599e-03 -5.612866e-06
-1.899353e-02 -1.454425e-03 -7.783407e-06
-8.850451e-03 -1.492421e-03 -8.211664e-06
-8.938272e-03 -1.522141e-03 8.174944e-07
-7.870239e-02 -1.446915e-03 -5.611809e-06
-2.833462e-02 -1.463670e-03 1.804214e-06
-1.626436e-01 -1.380857e-03 -6.498650e-06
-2.420384e-02 -1.429100e-03 6.227468e-06
-1.453806e-01 -1.282659e-03 1.561082e-06
-1.792927e-01 -1.214905e-03 1.520575e-06
-1.516076e-01 -1.152212e-03 1.305058e-05
-4.509807e-01 -9.660263e-04 -7.946763e-08
-5.370530e-01 -1.016448e-03 3.265969e-06
-6.290441e-01 -9.945349e-04 1.663939e-06
-7.530830e-01 -9.970177e-04 7.575049e-07
-6.323961e-01 -1.027075e-03 5.519119e-06
-8.119011e-01 -9.639266e-04 -2.782389e-06
-1.019352e+00 -1.032407e-03 -3.962276e-06
-1.094475e+00 -1.126157e-03 -2.708610e-06
-1.135115e+00 -1.191996e-03 -4.397045e-06
-1.021729e+00 -1.271114e-03 -4.388544e-06
-9.629105e-01 -1.320457e-03 -5.956470e-06
-8.057879e-01 -1.379197e-03 -1.325081e-06
-5.303493e-01 -1.335552e-03 2.904100e-06
-4.054389e-01 -1.183263e-03 -3.578587e-06
-2.917916e-01 -1.125570e-03 -1.165705e-06
7.651704e-02 -1.053003e-03 4.801600e-06
1.332862e-01 -8.276063e-04 -6.090767e-06
3.743792e-01 -7.747721e-04 8.832355e-06
4.595565e-01 -4.797427e-04 4.363726e-06
6.289558e-01 -2.848663e-04 3.922478e-06
5.971446e-01 -9.925803e-05 -2.808665e-06
5.797282e-01 -3.191037e-05 -3.997890e-06
6.538402e-01 1.196962e-05 -3.595172e-06
7.877022e-01 8.229755e-05 3.061753e-06
7.230648e-01 2.138428e-04 2.144668e-06
7.145671e-01 2.906939e-04 1.025372e-06
6.074592e-01 3.450079e-04 -1.528136e-06
4.117032e-01 3.400413e-04 -8.150485e-07
3.408471e-01 3.298417e-04 1.299613e-06
4.508148e-01 3.410101e-04 6.154453e-06
3.268909e-01 4.251176e-04 -4.493525e-06
3.570767e-01 3.729816e-04 3.572085e-06
3.230049e-01 4.322841e-04 1.223419e-06
2.767289e-01 4.668995e-04 -1.281061e-06
2.563378e-01 4.460610e-04 -6.444116e-06
1.488684e-01 3.824418e-04 -7.879313e-06
-4.816307e-03 3.118470e-04 -8.737235e-06
-1.870785e-01 2.687671e-04 -3.779330e-07
-5.465804e-01 3.322600e-04 7.976352e-06
-5.868420e-01 4.529667e-04 1.270089e-05
-4.570948e-01 5.840304e-04 1.267247e-05
-1.060601e+00 7.230977e-04 -6.355203e-06
-1.836092e+00 5.397218e-04 -1.184229e-05
-2.553529e+00 2.190014e-04 -1.096156e-05
-2.576666e+00 -1.345401e-04 -3.008063e-06
-5.292220e-01 -2.836431e-04 -2.569453e-06
2.110876e+00 2.608756e-05 9.463877e-06
3.697502e+00 8.247268e-04 8.821365e-06
3.692468e+00 1.565399e-03 2.288634e-06
3.400586e+00 1.814910e-03 -8.012433e-06
3.311021e+00 1.619774e-03 8.078060e-06
2.934970e+00 1.577096e-03 3.849084e-06
2.270256e+00 1.546893e-03 7.194036e-06
1.103418e+00 1.641948e-03 5.269050e-06
1.772109e-02 1.577132e-03 5.305038e-06
-5.640944e-01 1.400618e-03 4.519479e-06
-7.273889e-01 1.209060e-03 3.673422e-06
-9.445902e-01 1.028052e-03 -2.270431e-06
-1.415679e+00 8.281268e-04 -1.330568e-07
-1.767698e+00 6.357113e-04 -1.332860e-05
-1.457124e+00 3.255267e-04 -8.609847e-06
-1.245569e+00 2.793256e-04 -2.223516e-06
-1.349902e+00 4.269379e-04 4.812998e-06
-1.508057e+00 5.507839e-04 4.735693e-06
-1.240718e+00 5.500917e-04 2.781314e-06
-1.097154e+00 4.569033e-04 4.234621e-06
-1.233289e+00 3.127899e-04 -5.028048e-06
-1.339904e+00 7.606974e-05 -8.146442e-06
-1.331991e+00 -1.604625e-04 -7.072825e-06
-1.136253e+00 -2.475711e-04 -2.411530e-06
-1.004681e+00 -1.313652e-04 -6.594736e-07
-1.183486e+00 1.254616e-04 4.929786e-06
-1.265105e+00 3.689385e-04 -3.903386e-06
-1.014633e+00 4.870477e-04 2.417526e-06
-1.025616e+00 7.169563e-04 1.188311e-06
-1.154932e+00 6.353680e-04 -5.527026e-06
-1.074049e+00 3.906094e-04 2.104257e-06
-1.048044e+00 2.440373e-04 5.565974e-06
-9.630965e-01 1.734064e-04 7.824429e-06
-1.068243e+00 9.730384e-05 3.169958e-06
-9.922147e-01 -3.026089e-07 1.718586e-06
-8.803380e-01 -1.451374e-04 -4.144988e-06
-7.605942e-01 -2.538154e-04 -7.675384e-07
-5.589299e-01 -2.422907e-04 2.479708e-06
-7.123762e-01 -1.238409e-04 1.439793e-06
-7.990978e-01 -9.751128e-05 -7.363636e-07
-8.698946e-01 2.241846e-05 2.104625e-06
-8.026960e-01 -2.878419e-05 -3.003318e-06
-6.528917e-01 -1.320891e-04 -8.078498e-08
-4.335252e-01 -7.651615e-05 6.969025e-06
-5.245398e-01 -4.722802e-05 -1.002341e-06
-6.081365e-01 -1.477230e-04 -5.257335e-06
-6.006622e-01 -2.769741e-04 1.596754e-06
-5.239161e-01 -2.949591e-04 -2.543317e-06
-5.688927e-01 -2.493558e-04 6.251353e-06
-5.401899e-01 -1.208971e-04 -2.372176e-06
-5.415322e-01 -1.840247e-04 4.591560e-07
-6.878419e-01 -1.415895e-04 -2.330436e-06
-6.438315e-01 5.213182e-06 1.785596e-06
-5.125694e-01 2.094192e-04 5.932915e-06
-4.734948e-01 6.270219e-04 4.438386e-06
-4.591441e-01 7.809211e-04 -1.430596e-06
-5.331608e-01 6.467178e-04 -4.880670e-06
-5.818349e-01 3.877652e-04 1.052427e-06
-5.258027e-01 1.169271e-04 3.581386e-06
-4.441278e-01 6.703272e-05 5.166294e-06
-4.183737e-01 1.160198e-04 3.665690e-06
-4.808618e-01 9.693385e-05 -4.389656e-06
-3.469384e-01 -9.926430e-06 -3.270602e-06
-1.950379e-01 -1.526594e-04 -7.697628e-06
-1.551413e-01 -1.728242e-04 1.563805e-06
-1.170450e-01 -1.984062e-04 -2.264199e-06
-5.976280e-03 -2.314679e-04 -8.834360e-07
3.774564e-02 2.101417e-05 9.188604e-06
-1.353461e-01 1.151415e-04 -4.627195e-06
-1.117655e-01 -1.160959e-04 -1.158967e-05
8.560283e-02 -2.254809e-04 -5.463732e-06
2.543396e-01 -3.591108e-04 4.525836e-06
3.116680e-01 -4.580117e-04 -1.712377e-06
5.875075e-01 -4.671087e-04 8.543003e-06
5.536719e-01 -2.883309e-04 2.906525e-06
4.300863e-01 -3.347711e-05 6.056195e-06
6.233532e-01 4.409968e-04 1.875061e-05
7.378649e-01 9.584796e-04 1.760931e-05
7.223839e-01 1.245608e-03 8.914007e-06
7.876570e-01 1.252084e-03 1.676118e-06
9.101083e-01 1.197302e-03 4.641689e-06
9.395738e-01 1.198339e-03 4.939852e-06
1.054361e+00 1.282320e-03 1.044851e-05
1.175340e+00 1.425340e-03 1.879266e-05
1.029973e+00 1.519808e-03 1.740971e-06
9.142123e-01 1.146987e-03 -5.750432e-06
1.040783e+00 9.288456e-04 7.711789e-06
1.130607e+00 1.028543e-03 1.174843e-05
1.067465e+00 1.192604e-03 3.332086e-06
1.146334e+00 1.353489e-03 6.580428e-06
1.074888e+00 1.637294e-03 6.635719e-06
7.932396e-01 1.527316e-03 -1.020933e-05
8.978996e-01 1.107436e-03 1.282627e-06
8.929186e-01 8.369542e-04 -2.375954e-06
7.330343e-01 5.303596e-04 -3.474431e-06
7.586530e-01 4.172999e-04 -7.866292e-06
8.362068e-01 4.675946e-04 -3.005178e-06
6.194355e-01 5.581116e-04 -3.816411e-06
4.403779e-01 4.514221e-04 -5.017445e-06
7.444008e-01 5.003231e-04 4.602219e-06
6.907934e-01 7.301106e-04 3.329990e-06
4.599415e-01 8.164575e-04 -2.137007e-06
3.271687e-01 8.218938e-04 1.279423e-07
3.152335e-01 1.075536e-03 9.863366e-06
2.508209e-01 1.312733e-03 1.126371e-05
2.491530e-01 1.586524e-03 7.009509e-06
2.766717e-01 1.628721e-03 -2.111618e-06
2.358216e-01 1.493023e-03 -2.104440e-06
1.846766e-01 1.197753e-03 -1.785691e-06
1.433045e-01 9.566667e-04 -1.386178e-07
2.558047e-01 8.771753e-04 4.726506e-06
2.057438e-01 8.535315e-04 -2.976233e-06
1.769820e-01 5.740423e-04 -9.087514e-06
1.591631e-01 4.293115e-04 -5.454093e-06
1.106814e-01 2.796697e-04 -6.517050e-06
1.695374e-01 6.665795e-05 -2.774262e-06
3.717850e-01 1.128565e-06 7.451320e-06
2.380981e-01 -7.982867e-05 -4.880645e-06
2.727696e-01 -3.881858e-04 -6.934948e-06
3.118092e-01 -5.428319e-04 5.094609e-06
2.527001e-01 -3.261753e-04 7.620303e-06
4.145272e-02 -2.449901e-04 -7.164985e-06
2.169871e-01 -3.002215e-04 2.606535e-07
1.724376e-01 -1.790985e-04 4.517916e-08
7.045382e-03 -2.388702e-04 -9.459064e-06
6.162082e-02 -4.337892e-04 -2.978262e-06
2.726381e-01 -1.672178e-04 5.899068e-06
2.571393e-01 1.287824e-04 3.198544e-06
2.361366e-01 2.988368e-04 3.101539e-06
1.061732e-01 5.362049e-04 4.435225e-06
1.222228e-01 6.737905e-04 8.772074e-06
8.064710e-02 5.953337e-04 5.846954e-06
2.436340e-02 3.702159e-04 1.635607e-06
8.831912e-02 2.121556e-04 -1.931984e-07
3.623362e-02 3.118661e-05 -1.864650e-06
1.725366e-01 3.528668e-05 7.966615e-06
-4.991054e-02 -7.563863e-06 -1.230391e-05
1.019393e-01 -3.408966e-04 -9.825075e-06
1.679565e-01 -5.675897e-04 -5.195623e-06
1.037010e-01 -7.061380e-04 -4.889851e-06
1.751585e-01 -8.775419e-04 3.380751e-06
2.927118e-01 -8.782404e-04 7.266351e-06
2.398917e-01 -8.082688e-04 5.288121e-06
1.835690e-01 -8.880400e-04 3.339955e-06
1.584739e-01 -1.068871e-03 -2.478065e-06
3.746180e-02 -1.397263e-03 -9.090471e-06
2.302057e-02 -1.727126e-03 -2.796425e-06
1.752003e-01 -1.562035e-03 6.153591e-06
4.121146e-02 -1.227670e-03 -5.984652e-06
-2.188150e-01 -9.617339e-04 -1.179517e-05
-1.132892e-01 -8.488794e-04 -2.169417e-06
5.872335e-02 -5.630729e-04 4.166585e-06
-7.891482e-03 -4.186467e-04 -1.130987e-05
1.384989e-01 -2.274797e-04 1.184743e-05
-2.505745e-02 2.204042e-04 7.440201e-06
-2.238711e-01 2.515450e-04 -1.998254e-06
-1.762350e-01 -6.976385e-05 -6.900396e-06
-3.325556e-01 -5.247195e-04 -1.689276e-05
-3.883178e-02 -8.758981e-04 -3.308741e-06
-1.617602e-03 -8.140508e-04 -7.079892e-08
-1.785356e-01 -7.233639e-04 -4.006510e-06
-1.624415e-01 -6.741010e-04 -2.710786e-06
1.220318e-01 -4.791540e-04 8.679561e-06
-6.935686e-02 -2.178874e-04 -9.180272e-06
-1.027908e-01 -3.715318e-04 -1.259688e-06
-8.933251e-02 -4.352567e-04 3.041852e-06
-2.755397e-01 -5.614562e-04 -5.912073e-07
-5.269094e-01 -1.247278e-03 -1.665306e-05
-4.954296e-01 -1.760412e-03 -3.126032e-06
-6.137594e-01 -1.741753e-03 -7.976223e-06
-6.278204e-01 -1.763033e-03 -8.592589e-06
-7.774080e-01 -1.996880e-03 -2.134383e-05
-6.649419e-01 -2.122779e-03 -1.337689e-05
-4.790521e-01 -1.737535e-03 2.009409e-05
-9.629806e-01 -1.082099e-03 -7.110066e-06
-1.101757e+00 -1.021269e-03 -5.029271e-06
-1.072814e+00 -9.366211e-04 8.571598e-06
-1.178004e+00 -9.214366e-04 -1.058576e-05
-9.393347e-01 -1.464813e-03 -1.889253e-05
-4.369021e-01 -1.869732e-03 -8.566215e-06
-2.607852e-01 -1.770608e-03 9.356969e-08
-2.470210e-01 -1.614203e-03 -1.208279e-05
7.697481e-02 -1.641363e-03 2.197757e-07
3.509912e-01 -1.382319e-03 9.692444e-06
2.321006e-01 -1.014129e-03 3.409686e-06
3.223724e-01 -1.109492e-03 -1.282399e-05
6.362766e-01 -1.387049e-03 7.791987e-06
5.684751e-01 -1.295968e-03 -6.351916e-06
7.084641e-01 -1.762227e-03 -1.731685e-05
9.285225e-01 -2.301015e-03 -1.205410e-05
7.915154e-01 -2.441949e-03 -1.449475e-05
7.546147e-01 -2.330430e-03 1.018330e-06
6.366920e-01 -2.088192e-03 -8.580911e-06
6.540444e-01 -2.019359e-03 -7.751493e-06
7.224962e-01 -2.022815e-03 -5.352738e-06
6.785893e-01 -2.052876e-03 -4.792013e-06
6.172359e-01 -2.133260e-03 -3.890033e-06
6.137110e-01 -2.063520e-03 3.255145e-06
4.422541e-01 -1.859630e-03 5.668903e-06
3.511218e-01 -1.903557e-03 -9.331902e-06
5.539781e-01 -2.007467e-03 1.644055e-06
4.016910e-01 -1.549180e-03 3.559520e-06
3.065998e-01 -1.066057e-03 4.394070e-06
6.180543e-02 -8.859858e-04 -8.827546e-06
-3.083740e-01 -1.007962e-03 -5.901745e-06
-5.377867e-01 -1.109788e-03 -2.795915e-06
-5.480839e-01 -1.098947e-03 3.621000e-06
-4.345463e-01 -1.022852e-03 3.143821e-06
-6.257838e-01 -9.554646e-04 5.970409e-07
-1.270230e+00 -1.004818e-03 3.354472e-06
-2.082775e+00 -1.381121e-03 -7.912675e-06
-2.516690e+00 -2.040352e-03 -1.138040e-05
-5.837382e-01 -2.258883e-03 -1.353253e-07
1.690882e+00 -1.506917e-03 -3.368627e-06
2.955501e+00 -5.648631e-04 1.337431e-06
3.227429e+00 4.091634e-04 1.120834e-05
3.019214e+00 1.205309e-03 7.495463e-06
2.741919e+00 1.322620e-03 -1.018245e-05
2.689187e+00 5.302875e-04 -2.054101e-05
2.556572e+00 -4.152144e-04 -1.429102e-05
1.667724e+00 -8.106278e-04 -2.045174e-06
4.186576e-01 -9.813635e-04 -4.742818e-06
-8.810312e-02 -1.186725e-03 -2.028112e-06
-1.444653e-01 -8.633417e-04 6.338007e-06
-6.069539e-01 -2.856553e-04 -6.130266e-06
-9.914680e-01 -1.740738e-04 3.134028e-06
-1.471472e+00 -8.108128e-05 -3.668154e-07
-1.450157e+00 -1.402888e-04 -1.367683e-05
-1.071528e+00 -3.351390e-04 -5.896373e-06
-1.140186e+00 -1.701224e-04 6.688381e-06
-1.358257e+00 7.406959e-05 1.320535e-05
-1.275095e+00 2.987222e-04 1.557420e-05
-1.218311e+00 4.411745e-04 1.205695e-05
-1.304604e+00 4.296820e-04 6.739659e-06
-1.292249e+00 2.494534e-04 -1.396666e-06
-1.124629e+00 1.311098e-04 5.365300e-06
-1.037892e+00 5.721053e-04 1.295330e-05
-1.343686e+00 8.631890e-04 -6.070959e-06
-1.441158e+00 5.519371e-04 -1.229275e-05
-1.195264e+00 3.034523e-04 2.688051e-06
-1.022847e+00 2.011799e-04 1.358129e-07
-8.410297e-01 -1.853829e-04 2.448608e-06
-8.751496e-01 -2.744841e-04 9.786070e-06
-9.651678e-01 2.265422e-05 1.400374e-05
-1.004508e+00 -5.303444e-06 -9.436777e-06
-9.370816e-01 -4.443546e-04 -1.635334e-05
-9.860211e-01 -5.674729e-04 -1.054327e-05
-7.257689e-01 -4.133702e-04 8.133990e-06
-4.260462e-01 4.823302e-04 3.473927e-05
-9.147436e-01 1.569746e-03 7.337456e-06
-9.843818e-01 1.193193e-03 -1.034365e-05
-5.927331e-01 5.819676e-04 1.362988e-05
-8.466760e-01 5.939450e-04 -3.877363e-06
-7.508849e-01 -1.852893e-04 -1.037978e-05
-4.346674e-01 -4.005668e-04 1.702307e-05
-6.226466e-01 1.543639e-04 -3.751088e-06
-5.690030e-01 7.821326e-06 -5.486596e-06
-4.941008e-01 8.811620e-05 1.196618e-05
-4.376091e-01 5.196495e-04 1.533045e-05
-5.018117e-01 5.727696e-04 -4.940260e-06
-7.085774e-01 -1.861472e-05 -2.459955e-05
-5.124256e-01 -6.019845e-04 -3.256685e-06
-1.340367e-01 -2.698979e-04 1.722335e-05
-1.933598e-02 7.283461e-04 2.664043e-05
-1.776629e-01 1.332295e-03 1.706162e-05
-4.047645e-01 1.157140e-03 -2.184322e-06
-4.025685e-01 5.731748e-04 7.334404e-06
-4.156671e-01 2.423811e-04 1.522051e-06
-4.757576e-01 -4.491174e-04 -1.707569e-05
-1.387240e-01 -4.788913e-04 9.619438e-06
-2.871899e-01 5.817055e-04 5.817415e-06
-2.207240e-01 1.119146e-03 1.035135e-05
-2.635928e-01 1.108946e-03 4.049823e-06
-2.620863e-01 4.883054e-04 -5.198904e-06
-2.470978e-01 -1.250906e-04 -1.036276e-05
-1.567168e-01 -5.281518e-04 -5.640899e-06
7.963269e-02 -4.579113e-04 1.202181e-05
1.357181e-01 1.940956e-04 2.036492e-05
1.485351e-02 5.235993e-04 1.998415e-06
2.407154e-01 6.041204e-04 1.938172e-05
1.010502e-01 1.183974e-03 8.154142e-06
7.093723e-02 1.530333e-03 8.680773e-06
-2.341288e-02 1.528642e-03 7.415444e-07
1.322625e-01 1.241208e-03 -4.215044e-06
1.020176e-01 1.184706e-03 -4.753490e-06
2.372560e-01 1.815993e-03 1.682954e-05
3.963827e-01 2.460435e-03 2.870018e-05
3.232360e-01 2.790152e-03 1.227836e-05
3.580239e-01 2.401241e-03 1.888635e-06
4.573708e-01 1.600030e-03 1.210360e-06
7.087974e-01 1.260985e-03 9.252286e-06
8.881352e-01 1.438977e-03 1.299651e-05
9.012617e-01 1.752550e-03 5.086700e-06
9.148185e-01 1.821016e-03 1.054081e-05
9.722350e-01 2.143568e-03 1.488985e-05
8.658303e-01 2.782324e-03 1.123177e-05
9.305044e-01 3.190354e-03 9.687396e-06
9.738389e-01 3.420759e-03 1.006817e-05
8.056644e-01 3.585722e-03 2.001415e-06
9.374111e-01 3.352704e-03 1.043497e-05
1.062894e+00 3.373152e-03 2.557527e-05
9.515323e-01 4.107671e-03 1.976948e-05
1.172195e-01 4.062652e-03 -4.773841e-05
4.903538e-01 2.187089e-03 -3.231853e-05
1.068412e+00 2.126079e-03 1.831382e-05
8.903704e-01 3.754985e-03 1.740650e-05
8.637114e-01 4.251586e-03 2.253860e-05
8.789536e-01 4.895594e-03 4.245665e-05
2.099431e-01 5.797416e-03 3.994960e-06
1.168256e-01 4.338913e-03 -3.267303e-06
2.856741e-01 3.408784e-03 9.875595e-06
3.614217e-01 3.992847e-03 1.706029e-05
2.547638e-01 4.660983e-03 5.011172e-06
1.514258e-01 4.889976e-03 4.580783e-06
3.399560e-01 5.231221e-03 1.801294e-05
1.014616e-01 5.566292e-03 1.064327e-05
-4.568196e-02 4.901129e-03 1.948066e-06
-7.756441e-02 4.325050e-03 -6.522413e-06
2.475872e-02 4.376243e-03 -1.403957e-06
9.241354e-03 4.928278e-03 -2.427599e-06
-6.545513e-02 4.943643e-03 -4.772216e-06
1.484215e-03 4.148859e-03 -8.407340e-06
6.064831e-02 3.290396e-03 -1.550371e-05
2.689616e-01 2.854232e-03 -2.306391e-06
1.119135e-01 3.258506e-03 -1.055847e-06
-8.644840e-02 2.977950e-03 -1.995393e-05
1.582534e-02 2.211769e-03 -1.332916e-05
1.030144e-01 2.667534e-03 1.348999e-05
-8.806359e-02 3.774090e-03 3.120772e-06
-4.957028e-02 4.054838e-03 1.308413e-05
-4.902866e-01 3.842438e-03 -2.557357e-05
-1.013835e-01 1.251019e-03 -1.711367e-05
4.138329e-01 6.279338e-04 3.146780e-05
-4.225271e-01 2.413172e-03 -2.992406e-05
4.850893e-01 1.159598e-03 3.918144e-05
1.100381e-01 3.467318e-03 2.905888e-05
-3.008514e-01 3.085333e-03 -1.584693e-05
2.385245e-01 8.419927e-04 1.341669e-05
3.411171e-04 2.545888e-03 9.241400e-06
-2.230087e-01 2.719295e-03 -6.221284e-06
-1.688361e-01 1.867698e-03 -1.557568e-05
4.448073e-02 1.787012e-03 -3.124553e-06
-4.132699e-02 2.077607e-03 -7.733311e-06
2.457520e-02 1.339359e-03 -6.364774e-06
1.625745e-02 8.271981e-04 -1.029798e-05
3.704516e-02 6.700825e-04 -1.448230e-05
5.558485e-02 5.888532e-04 -2.213881e-06
-1.020462e-01 1.319752e-03 -1.118557e-05
-1.175870e-01 1.223566e-03 -1.336662e-05
-5.439200e-02 6.790667e-04 -9.157129e-06
2.931875e-02 4.639121e-04 -9.285260e-06
-2.668704e-02 -9.335175e-05 -2.114468e-05
2.282108e-01 -8.098611e-04 7.425652e-07
2.742034e-02 -1.846195e-04 -1.059672e-05
9.089128e-03 -9.571814e-04 -4.650213e-06
-1.251710e-01 -1.366600e-03 -2.446883e-05
2.429834e-01 -2.066693e-03 2.947078e-06
2.288578e-01 -1.057138e-03 9.712634e-06
-9.480723e-03 -9.693240e-04 -1.371673e-05
2.427761e-01 -2.491443e-03 -5.067367e-07
1.814908e-01 -9.226104e-04 1.506302e-05
-1.294575e-01 2.319930e-04 -2.969020e-06
1.772411e-01 -7.854503e-04 7.426296e-06
8.428668e-02 -2.031086e-04 4.276497e-06
9.440429e-02 -1.038139e-03 -4.568012e-06
1.094875e-01 -1.561125e-03 6.037456e-06
5.116917e-02 -2.624620e-04 1.491102e-05
-1.878062e-01 3.582558e-04 -1.131590e-05
1.504347e-02 -2.874472e-04 2.103885e-06
-2.272388e-01 1.136086e-04 -1.786329e-05
-3.210235e-01 -1.015932e-03 -2.914863e-05
1.862627e-01 -2.047930e-03 1.325618e-05
1.158042e-01 -1.902447e-04 1.830277e-05
-6.437524e-02 -4.564838e-04 -1.116131e-05
1.685102e-01 -2.299329e-03 -8.458427e-06
3.668043e-02 -1.828548e-03 -1.180885e-05
1.333434e-01 -2.075329e-03 -1.247953e-06
-1.687868e-01 -2.139774e-03 -8.389566e-06
-6.197940e-02 -2.620084e-03 -2.855225e-05
1.828255e-01 -3.068409e-03 3.902443e-06
-1.323130e-01 -1.282493e-03 2.235869e-06
-1.040034e-01 -1.259474e-03 -5.936090e-06
-5.165839e-02 -1.186563e-03 -6.674619e-07
7.779859e-02 -4.903330e-04 1.658563e-05
-9.934993e-03 -1.078592e-04 1.307068e-05
-2.517576e-01 -1.544796e-04 -1.560805e-05
-2.208682e-01 -1.997741e-03 -1.838793e-05
-1.918167e-01 -2.711970e-03 -4.279940e-06
-4.452808e-01 -1.903586e-03 -8.169055e-06
-3.776958e-01 -2.651565e-03 -2.934914e-07
-3.760982e-01 -1.967844e-03 1.347199e-05
-7.459962e-01 -7.770223e-04 -4.204661e-06
-5.525924e-01 -2.736089e-03 -3.023267e-07
-7.036225e-01 -3.079120e-03 -9.464536e-06
-8.002484e-01 -2.482059e-03 4.505521e-06
-1.022806e+00 -2.306402e-03 -1.321339e-05
-1.001806e+00 -3.571923e-03 -7.426871e-06
-9.296371e-01 -3.653715e-03 -4.274558e-06
-7.447371e-01 -3.788336e-03 -6.574967e-06
-5.654092e-01 -3.866433e-03 -9.747702e-06
-3.738868e-01 -3.365854e-03 -9.903056e-06
-5.959321e-02 -4.070130e-03 -6.324789e-06
3.078660e-01 -3.782034e-03 3.816944e-06
4.748429e-01 -2.384472e-03 1.437719e-05
4.960672e-01 -1.793463e-03 6.992798e-06
2.673274e-01 -1.592699e-03 -2.884834e-05
6.791716e-01 -3.057282e-03 -2.282431e-06
7.871844e-01 -2.356688e-03 1.106695e-05
7.235462e-01 -1.376662e-03 6.351853e-07
7.434191e-01 -1.620002e-03 -8.131787e-06
7.598453e-01 -7.717269e-04 3.085282e-06
5.684712e-01 -4.347398e-04 -1.873250e-06
8.080807e-01 -1.074160e-03 1.637956e-05
6.355792e-01 6.525100e-04 2.195021e-05
5.164515e-01 6.458183e-04 6.951245e-06
4.455446e-01 -4.939421e-04 -7.671250e-06
7.076548e-01 -1.028597e-03 1.409576e-05
4.177546e-01 -9.009856e-04 -1.215595e-05
3.930989e-01 -1.917341e-03 -1.617624e-05
5.206472e-01 -2.422580e-03 -1.066914e-05
4.605308e-01 -2.619699e-03 -4.628982e-06
4.374065e-01 -1.881877e-03 1.434069e-06
1.897206e-01 -7.985225e-04 -9.083854e-06
3.734061e-01 -1.813034e-03 -1.391247e-06
1.336896e-01 -1.704734e-03 -1.640707e-05
-2.885013e-01 -1.984534e-03 -1.509537e-05
-3.168484e-01 -2.984759e-03 1.344124e-05
-3.229327e-01 -1.907723e-03 2.530923e-05
-7.480127e-01 -1.223026e-03 -9.771484e-06
-8.809730e-01 -3.239548e-03 -7.007478e-06
-1.503699e+00 -3.016960e-03 -5.709569e-06
-1.945051e+00 -2.623091e-03 1.969038e-05
-2.471190e+00 -1.949932e-03 -1.573174e-05
-8.407036e-02 -2.567565e-03 -1.067229e-06
2.317101e+00 -7.458806e-04 -1.263005e-06
3.493719e+00 1.571500e-03 -3.132097e-06
3.642881e+00 2.298465e-03 1.317463e-05
3.565856e+00 3.049977e-03 1.818646e-05
3.248225e+00 3.616769e-03 1.682575e-05
2.716260e+00 3.176948e-03 7.253629e-06
1.985193e+00 2.728962e-03 1.588808e-05
7.750492e-01 2.660535e-03 -2.829384e-06
-6.021621e-02 9.326576e-04 -1.771883e-06
-8.358762e-01 -3.513739e-04 -3.944909e-05
-1.926226e-01 -1.543510e-03 7.815866e-06
-7.692761e-01 9.333229e-04 -4.968898e-07
-1.169240e+00 8.388048e-04 1.049829e-05
-1.312038e+00 1.157640e-03 1.029780e-05
-1.172081e+00 8.742375e-04 4.409883e-07
-1.057134e+00 1.459322e-04 1.925348e-06
-1.459720e+00 -6.645941e-04 -1.983542e-05
-1.256284e+00 -3.508385e-03 -1.422142e-05
-6.513792e-01 -4.046346e-03 1.090312e-05
-7.953905e-01 -1.977830e-03 4.804350e-06
-1.047287e+00 -1.341654e-03 3.395834e-06
-1.225965e+00 -1.594305e-04 7.130933e-07
-1.088574e+00 -1.751310e-04 5.793472e-06
-1.010571e+00 -6.784272e-04 -1.039394e-05
-8.835598e-01 -4.523989e-04 1.517826e-07
-1.116193e+00 8.639930e-04 -1.714803e-06
-1.083364e+00 1.314285e-03 9.072742e-06
-1.259471e+00 1.493128e-03 -1.210652e-05
-9.019304e-01 5.387166e-04 1.055345e-05
-1.155007e+00 1.532412e-03 5.089369e-06
-1.205507e+00 1.198029e-03 -1.315032e-05
-9.775771e-01 -5.805337e-05 -1.166984e-05
-6.400271e-01 -5.268644e-04 -6.284080e-07
-6.015427e-01 4.564079e-04 1.819757e-05
-7.134004e-01 1.871737e-03 2.404024e-05
-1.059145e+00 2.023441e-03 -1.090372e-05
-7.176812e-01 6.504910e-06 -7.935729e-06
-4.897374e-01 -1.034422e-03 -6.763316e-06
-4.543006e-01 -1.729982e-03 -8.873558e-06
-2.240476e-01 -2.505209e-03 -5.629535e-06
-1.580509e-01 -2.065666e-03 1.857355e-05
-5.777750e-01 -6.589874e-04 -1.078280e-05
-4.180687e-01 -1.616250e-03 -5.144949e-06
-3.517621e-01 -1.445362e-03 2.359429e-06
-4.112924e-01 -6.565674e-04 -1.747001e-06
-2.516473e-01 -9.209132e-04 1.057214e-07
-1.711115e-01 -6.147042e-04 1.317022e-06
-3.974906e-01 7.713795e-05 -5.271993e-06
-2.820433e-01 8.018614e-04 1.547700e-05
-5.881438e-01 9.546158e-04 -1.568724e-05
-4.058888e-01 -1.285505e-03 -1.624108e-05
-4.736430e-01 -9.922055e-04 -4.857036e-06
-6.953941e-01 1.636884e-04 -4.024068e-06
-3.358989e-01 7.025487e-04 2.255345e-05
-5.737093e-01 2.592051e-03 2.064851e-05
-6.752089e-01 3.535986e-03 1.297226e-05
-7.086989e-01 3.201068e-03 -2.554594e-06
-5.360726e-01 2.089650e-03 2.384609e-06
-5.835537e-01 8.114342e-04 -1.502378e-05
-2.284877e-01 -1.052753e-03 -2.691744e-06
-8.182217e-02 -9.966846e-04 1.230705e-05
-2.900064e-01 -4.192312e-04 -1.027077e-05
-1.838508e-01 -1.526259e-03 -1.035411e-05
6.067628e-02 -1.680689e-03 9.876631e-06
-1.095526e-01 -1.544474e-03 -4.646876e-06
-1.394930e-01 -1.879251e-03 -1.234643e-05
-4.122290e-03 -8.547966e-04 -2.658307e-06
-1.671550e-02 2.979508e-04 1.910274e-06
-7.216946e-03 5.121471e-04 -3.034487e-06
-3.468313e-03 -8.014426e-04 -2.127467e-05
4.422692e-01 -2.958222e-03 -9.681744e-07
4.555524e-01 -1.656076e-03 1.840769e-06
3.869258e-01 -2.180053e-03 -2.024672e-05
6.917572e-01 -3.561850e-03 -3.713971e-06
4.649166e-01 -1.626753e-03 -1.218466e-05
4.976003e-01 -7.490110e-04 -9.124207e-06
5.483186e-01 -1.136645e-05 -8.206819e-06
7.882472e-01 7.972180e-04 1.162381e-05
9.639118e-01 2.358381e-03 3.282571e-05
6.528856e-01 3.769110e-03 1.810659e-05
7.326957e-01 2.526418e-03 7.912900e-06
7.847848e-01 2.039309e-03 4.664653e-06
1.006617e+00 1.255771e-03 7.022802e-07
1.277499e+00 3.097472e-05 8.188706e-06
1.367496e+00 6.000284e-04 2.618139e-05
8.239737e-01 2.180835e-03 -9.650557e-06
1.104867e+00 1.213128e-03 9.063926e-06
8.000412e-01 1.664502e-03 -1.874921e-05
1.115971e+00 2.462987e-04 -5.462618e-07
9.330448e-01 7.433074e-04 -9.357264e-06
9.412211e-01 4.718969e-05 -1.117314e-05
1.011591e+00 -2.673870e-04 -2.229924e-06
1.012687e+00 -1.473043e-04 -2.879155e-06
1.147295e+00 -8.813576e-04 1.051088e-06
9.349545e-01 -1.416700e-03 -2.276471e-05
1.281400e+00 -2.610428e-03 1.645888e-05
1.217878e+00 -3.542589e-05 3.350197e-05
5.336187e-01 7.119879e-04 -1.924014e-05
1.050677e+00 -1.522844e-03 2.399995e-05
5.332646e-01 1.219837e-03 7.813401e-07
4.267764e-01 3.939663e-05 -1.489285e-05
7.789240e-01 -6.411822e-04 1.209061e-05
4.170832e-01 1.590211e-03 1.017227e-05
2.781390e-01 1.399311e-03 2.686672e-06
2.139141e-02 1.007762e-03 -2.205797e-05
2.107341e-01 -2.107537e-04 -1.129152e-05
2.504190e-01 2.432288e-04 8.779456e-06
2.362359e-02 1.788825e-03 -3.939261e-07
1.524758e-01 5.974079e-04 -1.996993e-06
4.079074e-02 1.310980e-03 -8.853487e-07
1.490540e-01 2.010674e-03 2.158415e-05
-2.183487e-01 2.331321e-03 -9.979967e-06
3.621597e-02 -5.319243e-04 -1.453765e-05
2.722705e-01 -2.157188e-03 -1.141329e-05
2.745515e-01 -2.020662e-03 -7.883857e-06
3.742775e-01 -2.117511e-03 -1.207240e-06
2.545075e-01 -9.970095e-04 6.231849e-06
-8.192530e-02 -3.986116e-04 -1.962203e-05
2.153673e-01 -1.791324e-03 -2.968218e-06
2.550237e-01 -1.064609e-03 1.478649e-07
3.648460e-01 -1.538471e-03 4.401493e-06
7.531713e-02 -1.343410e-03 -4.938743e-06
2.090205e-01 -2.459277e-03 -1.154101e-05
3.163993e-01 -3.238790e-03 -1.179695e-05
3.621046e-01 -1.618380e-03 1.985962e-05
1.114807e-01 -1.237440e-04 7.766867e-06
1.931120e-01 -6.082130e-04 5.995524e-06
1.026156e-01 2.863108e-04 2.204285e-06
-2.153518e-01 -6.090353e-04 -3.589860e-05
1.454190e-01 -1.606483e-03 -1.103899e-05
-8.896028e-04 5.237153e-04 8.361844e-06
-2.517303e-01 1.126348e-03 -1.033747e-05
-5.613096e-02 3.804922e-04 -1.098551e-06
4.523335e-02 1.255293e-03 -1.641479e-06
3.179181e-01 1.347911e-03 2.601452e-05
-1.047711e-01 2.049317e-03 2.120986e-05
-2.182335e-01 4.938606e-04 -1.835227e-06
4.142696e-02 -1.326084e-03 1.577126e-06
4.612409e-03 -7.041846e-04 1.838057e-06
-1.138907e-01 -8.883616e-04 -1.539730e-05
2.904926e-01 -2.916272e-03 1.405911e-06
2.205955e-01 -1.026232e-03 2.135603e-05
-8.473061e-02 4.132862e-04 -3.805395e-06
-4.119590e-02 -1.289077e-03 -1.064565e-05
2.598630e-01 -1.216884e-03 1.480455e-05
6.373941e-02 -3.998985e-04 4.112017e-06
7.606335e-02 -2.006556e-03 -4.882433e-06
1.234951e-01 -1.911800e-03 6.488312e-07
1.001702e-01 -1.013678e-03 1.134214e-06
1.594638e-02 -1.048197e-05 1.927985e-06
-1.733162e-01 -8.711560e-04 -2.013768e-05
1.896848e-01 -2.046266e-03 2.092573e-06
-1.265968e-01 1.916752e-03 2.192281e-05
-5.135927e-01 3.147658e-03 -3.333869e-06
-1.303992e-01 1.345726e-03 1.472659e-05
-3.122818e-01 3.268958e-03 1.220087e-05
-4.113504e-01 2.903708e-03 -2.608230e-06
-3.157076e-01 1.563019e-03 -3.754482e-06
-3.455374e-01 1.736998e-03 1.094751e-06
-4.081872e-01 1.709745e-03 -4.754005e-06
-8.653100e-02 1.694344e-04 -1.186952e-06
-1.968250e-01 4.820092e-05 1.579664e-06
-2.312403e-01 5.195333e-04 1.042163e-05
-2.485264e-01 1.037516e-03 6.303162e-06
-1.354714e-01 1.288057e-04 -2.666738e-06
-3.556386e-02 -8.535551e-04 -6.945674e-06
-2.235634e-02 -2.184651e-04 5.776398e-06
-2.935939e-01 3.894717e-04 -1.138653e-05
-2.136130e-01 -1.764137e-03 -1.582377e-05
-1.571990e-01 -1.098169e-03 -1.006005e-06
-2.112886e-01 -2.385905e-04 -1.573094e-05
3.737896e-02 -1.526164e-03 3.008071e-06
-8.492357e-02 4.870906e-04 2.113477e-05
-5.094299e-01 1.038417e-03 -1.803914e-05
-2.948328e-01 -2.193733e-03 -3.220792e-05
-1.562667e-02 -2.798776e-03 -7.659593e-06
-2.747771e-02 -1.209238e-03 1.045718e-05
-4.072230e-01 -7.476801e-05 -2.138600e-05
1.618115e-01 -2.617051e-03 6.133840e-06
2.094052e-01 -1.413109e-04 3.407285e-05
-5.199771e-01 3.178252e-03 1.162282e-05
-4.145547e-01 2.228625e-04 -8.305661e-07
-3.271421e-01 -1.154834e-03 -7.946763e-06
-1.732227e-01 -1.149500e-04 1.574474e-05
-4.018175e-01 -1.684717e-04 -1.754650e-05
1.904396e-01 -1.948697e-03 1.196044e-05
-1.804676e-01 1.300363e-03 7.178594e-06
-3.010149e-01 2.132624e-03 2.038086e-05
-4.922019e-01 1.376943e-03 -4.598844e-06
-1.606366e-01 2.651290e-04 6.396481e-06
-2.916068e-01 1.188795e-03 4.677951e-06
-2.424390e-01 5.997065e-04 8.651218e-06
-2.660204e-01 -8.481618e-04 -5.428849e-06
-3.304112e-01 -1.369327e-03 5.021107e-06
-7.052852e-01 1.342452e-03 1.456028e-05
-8.136468e-01 1.414491e-03 1.551241e-05
-1.091958e+00 -2.564335e-04 -2.668405e-05
-5.470412e-01 -5.101756e-04 2.245601e-05
-1.100276e+00 2.736755e-03 1.394428e-05
-9.772675e-01 7.481076e-04 1.676217e-06
-1.093404e+00 6.380499e-04 4.279513e-06
-1.245534e+00 8.885863e-04 -6.599394e-06
-9.986466e-01 -1.006952e-03 8.436121e-06
-1.108131e+00 -2.484501e-04 -2.555582e-06
-7.317674e-01 -8.978845e-05 9.689227e-06
-8.368408e-01 9.181512e-04 -8.126201e-06
-4.957042e-01 3.409348e-04 4.496252e-06
6.428818e-03 2.159862e-03 3.631285e-05
-4.491587e-01 5.862209e-03 9.874801e-06
9.268358e-02 3.472217e-03 1.347295e-05
-1.158706e-01 2.670397e-03 -2.567076e-05
6.176038e-01 1.639073e-03 2.311303e-05
4.717075e-01 4.553572e-03 3.025471e-05
1.541420e-01 4.275690e-03 -9.300650e-06
4.127260e-01 1.671823e-03 -1.029160e-05
3.538531e-01 2.271365e-03 -1.635218e-05
5.080903e-01 1.119949e-03 -1.553834e-05
8.767512e-01 1.304135e-03 7.191970e-06
6.349324e-01 3.324447e-03 1.368493e-05
3.874043e-01 2.785083e-03 -1.022257e-05
4.696590e-01 4.441137e-04 -2.146315e-05
4.127052e-01 -7.181720e-04 -2.597050e-05
3.941526e-01 -1.011606e-04 -8.756016e-06
6.629224e-01 2.244113e-04 1.969988e-05
2.716486e-01 2.660315e-04 -6.862774e-06
1.999902e-01 2.003313e-04 -2.820867e-06
2.588871e-01 1.422975e-03 -1.059808e-05
7.530294e-01 -2.328317e-04 1.079957e-05
2.507627e-01 6.569458e-04 -9.244169e-06
1.551495e-01 -5.177173e-04 -1.285890e-05
-3.215733e-02 -5.625995e-04 4.472925e-06
-7.996062e-01 1.356212e-03 4.229579e-06
-1.264611e+00 1.246935e-03 -1.858210e-05
-6.942836e-01 -8.710153e-04 -1.919979e-06
-8.287804e-01 7.111548e-04 1.661904e-05
-1.616903e+00 2.392193e-03 6.658074e-06
-2.559741e+00 3.070951e-04 -2.543946e-05
-2.780885e+00 -4.079293e-03 -1.726085e-05
-8.788094e-01 -3.675206e-03 2.608693e-05
1.054703e+00 3.542626e-04 -3.283154e-05
3.399145e+00 -1.408794e-03 -3.719190e-05
4.401357e+00 6.506182e-04 2.198793e-05
3.512762e+00 4.676610e-03 -1.366045e-05
3.872618e+00 2.605949e-04 1.948908e-06
3.453563e+00 1.373199e-03 1.885604e-05
2.500725e+00 3.436071e-03 6.329316e-06
1.614466e+00 1.045902e-03 -2.820942e-06
7.031716e-01 -2.573440e-03 -1.210639e-05
-9.617152e-02 -3.827086e-03 -2.130987e-05
-5.069299e-02 -3.857854e-03 -1.190020e-05
-2.546535e-01 -2.136059e-03 6.705524e-06
-1.132367e+00 -1.190353e-03 -1.868617e-05
-1.215611e+00 -3.719533e-03 -1.888415e-05
-7.813651e-01 -2.742178e-03 8.774319e-06
-8.723137e-01 -7.292637e-04 -1.236235e-05
-7.177480e-01 -3.813884e-03 -2.088395e-05
-7.839179e-01 -3.385464e-03 9.552399e-06
-1.050559e+00 -9.441201e-04 6.684308e-06
-8.616235e-01 -2.075900e-03 -9.742370e-06
-7.738213e-01 -2.450892e-03 5.357492e-06
-9.214623e-01 -5.145752e-05 2.484720e-05
-1.060923e+00 4.224852e-04 3.920120e-06
-7.950826e-01 -2.156386e-03 -1.382879e-05
-7.280305e-01 -2.324545e-03 8.859928e-06
-1.108268e+00 -9.728808e-04 -3.819486e-06
-8.309190e-01 -2.881463e-03 -7.933799e-07
-8.879539e-01 -2.237885e-03 -1.412787e-05
-5.299047e-01 -2.161969e-03 -7.787237e-06
-5.225837e-01 -7.931622e-04 1.120331e-05
-7.811599e-01 -4.598885e-04 -2.370931e-06
-4.214009e-01 -2.320302e-03 -1.000067e-06
-5.524184e-01 -2.325862e-03 -1.148001e-05
-4.508108e-01 -2.957709e-03 -1.460299e-06
-3.387522e-01 -2.694546e-03 1.032655e-05
-2.098656e-01 -1.795117e-03 3.415195e-05
-8.109725e-01 4.933480e-05 -1.597313e-05
-1.324560e-01 -3.454200e-03 9.928271e-06
-4.079029e-01 -9.137528e-04 8.133342e-06
-4.632433e-01 -5.189431e-04 -3.493922e-06
-3.949387e-02 -1.447076e-03 2.191878e-05
-5.207053e-01 1.069005e-03 7.044425e-06
-6.675735e-01 -6.070005e-04 -2.823058e-05
-2.229678e-01 -3.166962e-03 -5.592554e-06
-4.827625e-01 -1.353431e-03 -5.922618e-06
1.765581e-01 -1.397629e-03 4.638660e-05
-5.587339e-01 2.380023e-03 1.260323e-05
-6.030718e-01 6.499120e-06 -1.022051e-05
-3.341350e-01 -1.028582e-03 5.326090e-07
-3.008984e-01 2.959135e-04 2.221275e-06
-3.982093e-01 -1.261103e-03 -8.286739e-06
-2.146389e-01 -1.740087e-03 1.299850e-05
-7.374038e-01 7.781099e-04 -1.713945e-05
-4.051697e-01 -2.358845e-03 -1.605378e-05
9.149240e-03 -1.956350e-03 1.543828e-05
-4.384818e-01 1.221887e-03 -9.443220e-07
-3.782453e-01 -6.906732e-04 -4.876921e-06
-3.463341e-01 -1.942406e-04 1.524064e-06
-4.306225e-01 1.522250e-03 3.095181e-07
-1.374580e-01 -3.016971e-04 1.813066e-06
-8.235527e-02 -1.802792e-04 2.225083e-05
-3.606391e-01 6.758800e-04 1.762499e-06
-2.304711e-01 -1.454071e-03 -1.927311e-05
2.750886e-01 -2.879482e-03 4.592199e-06
1.070259e-01 -1.723998e-03 -3.397431e-06
1.736448e-01 -2.935682e-03 -1.901315e-06
-9.280792e-02 -1.616083e-03 -2.114671e-05
1.545292e-02 -4.765735e-04 -4.873289e-06
-1.776416e-01 2.436017e-03 1.038150e-05
-2.914885e-01 2.412227e-03 6.206966e-06
8.883535e-02 1.049107e-03 1.981847e-05
-2.641757e-02 2.380862e-03 -2.280449e-06
4.002718e-01 8.262616e-04 9.702927e-06
3.024279e-01 2.123625e-03 6.656600e-06
-1.480979e-01 9.758425e-04 -3.755333e-05
9.047776e-01 -4.115963e-03 4.640430e-06
6.122410e-01 1.474737e-03 1.247149e-05
3.411416e-01 3.262109e-03 1.806341e-06
8.401907e-01 1.621813e-03 1.581143e-05
7.484528e-01 3.696781e-03 2.127167e-05
3.281196e-01 3.531835e-03 -2.923623e-05
1.244734e+00 -1.495391e-03 4.087308e-06
7.332691e-01 3.308915e-03 -4.447341e-06
9.543880e-01 2.828873e-03 8.495036e-06
9.845230e-01 1.849737e-03 -4.019294e-06
1.420766e+00 7.639205e-04 2.456267e-05
9.706687e-01 3.434277e-03 7.116818e-06
9.368440e-01 1.936084e-03 -2.532138e-06
1.120477e+00 1.841265e-04 4.387451e-06
1.066159e+00 2.742851e-04 -7.948994e-06
1.032534e+00 1.974247e-05 -1.234217e-05
1.010570e+00 7.458959e-04 9.798476e-07
7.500843e-01 3.644039e-03 6.282587e-06
6.608666e-01 3.543516e-03 2.813873e-06
6.678776e-01 2.904941e-03 2.022902e-06
8.838429e-01 2.954728e-03 1.931926e-05
6.779715e-01 4.416816e-03 1.649635e-05
4.858355e-01 2.602457e-03 -2.473580e-06
8.641396e-01 9.882120e-04 2.437735e-05
3.707807e-01 3.129573e-03 -4.587121e-06
7.275571e-01 6.530544e-04 6.603220e-06
4.105276e-01 3.227007e-03 1.363997e-05
-1.008814e-01 3.135295e-03 -3.187995e-05
6.675957e-01 -2.754897e-03 -1.424552e-05
5.836376e-01 8.840738e-04 8.919855e-06
2.102849e-01 2.240319e-03 -5.067534e-06
3.329701e-01 6.219082e-04 -6.210282e-06
1.774537e-01 2.333861e-03 2.055898e-09
-5.057135e-02 1.731989e-03 -2.768328e-05
1.979294e-01 -1.203914e-03 -2.629501e-05
4.383258e-01 4.764256e-04 8.777751e-06
4.738724e-01 3.600839e-03 3.504910e-05
1.827648e-01 3.531225e-03 1.553698e-05
-8.131105e-02 1.058648e-03 -1.114181e-05
3.412129e-02 -4.433233e-04 -2.687675e-05
7.054914e-01 -2.085104e-03 2.958200e-05
-3.716445e-01 2.474091e-03 -2.197206e-05
5.178249e-01 -2.854773e-03 6.969526e-06
3.453727e-01 9.141298e-04 2.653301e-05
-4.685365e-01 3.727655e-03 -1.193605e-05
1.689194e-01 -1.288519e-03 3.108536e-06
-2.100345e-02 1.330157e-03 -1.886385e-06
5.112349e-02 1.917671e-03 6.972479e-06
-1.410326e-02 1.847403e-03 7.777806e-06
-1.912983e-01 2.146794e-03 1.513246e-06
-1.376139e-02 4.015710e-04 -1.451791e-06
-6.760217e-02 7.125595e-04 2.019830e-06
-5.349547e-02 4.085939e-04 -2.975113e-06
-8.995753e-02 -7.847503e-05 -5.692188e-06
-2.337709e-01 1.199958e-03 -5.779260e-06
3.674650e-02 -4.352977e-04 -6.974400e-07
-8.192222e-02 -5.771444e-05 -9.942454e-06
-1.991354e-01 1.876444e-03 -6.212884e-07
-2.022969e-02 3.302538e-03 2.448764e-05
-3.783352e-01 4.732190e-03 -2.004462e-06
3.847036e-01 1.309397e-03 4.019798e-05
-1.385460e-01 2.963390e-03 6.738670e-06
1.713816e-01 -1.267596e-03 9.243369e-07
1.772168e-03 -2.057503e-06 4.388298e-06
-3.171126e-01 4.455645e-04 -1.686413e-05
5.594829e-02 -3.095113e-03 -1.585933e-05
-5.968270e-02 -9.824484e-04 -1.481236e-05
-1.474310e-02 -1.343171e-03 -6.174212e-06
9.473513e-02 -5.900909e-04 1.633022e-06
-2.026246e-02 1.540653e-03 1.133268e-05
-2.101011e-01 1.420380e-03 2.100624e-06
-3.158568e-01 1.328436e-03 -6.857219e-06
-3.017799e-01 9.266204e-04 -4.293412e-06
-5.305448e-01 9.071348e-04 -2.885622e-05
2.188957e-01 -1.813687e-03 6.855027e-06
7.359477e-03 1.900366e-03 3.117279e-05
-3.694853e-01 3.721107e-03 1.112973e-05
1.753185e-01 2.698988e-04 2.581700e-05
-2.498497e-01 2.364992e-03 1.432292e-05
-8.460553e-02 1.251319e-03 1.551113e-05
-2.367563e-01 -4.284132e-04 -9.967146e-06
-1.936566e-01 -1.147735e-03 -1.406324e-05
-1.705915e-01 2.590047e-04 -1.210576e-05
-6.038620e-02 -3.697289e-05 -9.823423e-06
1.276584e-01 -4.839809e-05 1.186275e-05
-4.677178e-01 3.089288e-03 -9.761380e-06
-9.956155e-02 -3.384047e-04 2.464970e-06
-4.840162e-01 -2.266566e-04 -2.632372e-05
6.036162e-01 -2.322993e-03 4.966642e-05
-3.726368e-01 4.161470e-03 1.277665e-05
1.165758e-01 -4.131072e-04 2.556708e-05
-5.098385e-01 3.600135e-03 -9.578061e-06
-4.818133e-01 8.660670e-04 -3.666152e-05
2.629595e-01 -2.370482e-03 3.570838e-06
-3.990143e-01 3.198057e-03 4.514175e-06
-4.674010e-01 6.402214e-04 -2.221572e-05
-1.346931e-01 -1.284443e-03 1.727482e-06
-8.120703e-01 2.938452e-03 -2.816899e-05
-2.885020e-01 -2.290192e-03 -2.540934e-05
7.875615e-02 -1.129882e-03 1.432751e-05
-4.475684e-01 2.783460e-03 6.894509e-06
-1.172739e-01 -3.035521e-04 7.040323e-06
-1.454308e-01 3.716248e-04 1.187151e-05
-1.631764e-01 6.396612e-04 4.625272e-06
-6.182306e-02 -1.893519e-03 7.835616e-07
-2.759505e-01 -2.847153e-03 -2.267791e-05
1.933719e-01 -4.085376e-03 3.671721e-06
-2.939366e-01 4.403627e-04 -2.901195e-07
-3.180450e-02 -1.593008e-04 2.113798e-05
-5.773878e-01 1.632880e-03 -2.101993e-05
-3.470925e-01 -2.225021e-03 -1.890836e-05
-5.108748e-01 5.343114e-04 -1.573322e-05
3.051776e-02 -3.828633e-04 2.420090e-05
-9.254081e-01 3.989839e-03 -3.231798e-05
2.316104e-01 -3.640751e-03 5.133608e-06
-2.566475e-01 -1.265884e-03 -1.441132e-05
-7.216791e-02 -2.947347e-03 -1.026846e-05
8.131722e-02 -2.036510e-03 1.388052e-05
-4.805927e-02 -5.048345e-04 1.105585e-05
-1.337841e-01 -7.620354e-04 1.240515e-05
-1.474565e-01 -1.807063e-03 -2.285439e-06
-4.250085e-01 -7.008550e-04 -2.238125e-05
-4.081847e-01 -8.535111e-04 -1.541494e-05
-4.017848e-01 6.458439e-04 1.497354e-05
-8.051034e-01 2.573196e-03 5.233300e-06
-7.637183e-01 -1.032677e-04 1.175977e-06
-8.653835e-01 -1.561206e-03 -1.035730e-05
-6.037207e-01 -3.485916e-03 -1.038185e-06
-7.778672e-01 -4.176398e-03 -2.131779e-05
-3.018512e-01 -6.492750e-03 5.349121e-06
-9.675927e-01 -1.046898e-03 -2.136112e-06
-1.054657e+00 -1.541568e-03 -1.016159e-05
-7.755856e-01 -3.357825e-03 9.473732e-06
-1.205226e+00 -3.007541e-05 2.701091e-06
-7.714393e-01 -1.854856e-03 6.247369e-06
-1.009731e+00 3.818232e-04 -2.846838e-06
-8.399130e-01 -1.682050e-03 -3.106022e-05
2.125453e-01 -5.159322e-03 1.333118e-05
3.773029e-02 -3.666764e-04 2.358969e-05
-8.650963e-02 1.062287e-03 4.334382e-06
1.910597e-01 -5.674960e-04 -5.984367e-06
1.273161e-02 6.674103e-04 -1.751247e-05
6.911653e-01 -3.578877e-03 4.444807e-06
7.597877e-01 -1.807784e-03 1.230814e-05
7.372719e-01 -2.287643e-03 -6.222464e-06
6.212020e-01 -3.055634e-03 -2.217889e-05
9.777135e-01 -4.254216e-03 -1.581996e-06
9.713762e-01 -1.857619e-03 5.881068e-06
1.030636e+00 -1.271600e-03 2.235315e-05
6.493444e-01 8.213439e-04 9.094993e-06
1.208272e-01 4.352136e-04 -3.158426e-05
1.126337e+00 -4.575119e-03 1.896293e-05
3.412753e-01 3.030072e-03 1.093349e-05
4.277410e-01 -2.046636e-04 -1.081259e-05
8.207629e-01 -2.680938e-03 1.309280e-05
2.163469e-01 1.200844e-03 -1.794422e-06
5.476137e-01 -1.615619e-03 -4.687434e-07
6.182814e-01 -4.674654e-04 1.947973e-05
3.217200e-01 1.423022e-03 -9.334640e-07
4.645565e-01 -1.561089e-03 8.861191e-06
-1.666900e-01 -6.151891e-04 -2.361796e-05
-1.713561e-02 -3.463831e-03 -1.162187e-05
-3.146150e-01 -7.317009e-04 2.307173e-05
-1.010519e+00 2.139371e-03 -1.599914e-05
-1.236063e-01 -4.371707e-03 -1.696543e-06
-8.587655e-01 1.556495e-03 1.740772e-05
-1.957536e+00 2.298602e-03 -1.768622e-05
-1.726033e+00 -4.593276e-03 3.288529e-06
-2.408410e+00 -2.785857e-03 -2.178991e-05
1.391679e-01 -7.448247e-03 -2.206143e-05
2.838022e+00 -3.087464e-03 1.747258e-05
2.897059e+00 7.692784e-03 1.875653e-06
3.413242e+00 2.544123e-03 8.204173e-06
3.337235e+00 3.324756e-03 1.004668e-05
2.872135e+00 3.734248e-03 -1.399556e-05
3.178132e+00 -7.395673e-04 5.470505e-06
1.818747e+00 5.527348e-03 -1.445052e-05
1.408337e+00 -6.935047e-04 6.149792e-07
3.769038e-01 -9.279399e-04 1.037504e-05
-2.204399e-01 -1.130905e-03 -1.869975e-06
-1.111941e-01 -1.564621e-03 6.664836e-06
-8.213342e-01 -2.590276e-05 -2.042943e-05
-9.331614e-01 -5.296722e-03 -3.389053e-05
-7.509659e-01 -6.699517e-03 -1.132592e-05
-9.104989e-01 -1.961201e-03 -1.019128e-06
-7.083603e-01 -9.277158e-04 1.565059e-05
-1.264707e+00 2.538003e-03 1.142817e-05
-1.574676e+00 1.280367e-03 -1.140841e-05
-1.027476e+00 -2.244628e-03 -1.550364e-05
-9.211608e-01 8.245063e-04 4.616633e-06
-1.226906e+00 2.053210e-03 5.063414e-06
-8.896833e-01 -1.225113e-03 1.941645e-05
-1.196680e+00 -5.553773e-04 -1.554608e-05
-3.548342e-01 -3.523794e-03 2.364979e-05
-1.376365e+00 2.758102e-03 -1.290772e-05
-8.505530e-01 -2.101137e-03 1.262080e-06
-9.114905e-01 -1.301469e-03 -5.775505e-06
-7.304907e-01 -3.691803e-03 -1.594405e-05
-3.882490e-01 -3.759154e-03 7.256692e-06
-8.542787e-01 -7.056645e-05 -1.336799e-05
-5.793981e-01 -3.472752e-03 -2.601265e-06
-5.978440e-01 -1.746581e-03 2.455933e-06
-3.862018e-01 4.363097e-04 2.451045e-05
-7.033902e-01 7.598333e-04 7.188024e-07
-9.189181e-01 -1.131706e-04 -7.023452e-06
-2.622400e-01 -1.367324e-03 2.006348e-05
-7.792652e-01 7.376053e-04 -1.908629e-05
-2.162527e-01 -3.126164e-03 3.516364e-06
-8.555263e-01 9.237994e-04 -1.029279e-05
-3.169187e-02 -2.805830e-03 1.568949e-05
-4.872795e-01 1.533251e-03 1.372323e-05
-8.880564e-01 7.437687e-04 -2.438795e-05
-2.413083e-02 -3.799626e-03 3.995685e-06
-6.507329e-01 1.892857e-03 -8.329944e-06
-1.255375e-01 -3.625333e-03 -4.095908e-06
-2.922941e-01 -3.192463e-03 -1.496151e-05
-1.525983e-01 -3.298801e-03 -9.158466e-06
1.104348e-01 -3.454016e-03 -8.966284e-07
-2.348359e-02 -2.679783e-05 1.675153e-05
2.431056e-02 7.146330e-04 3.067114e-05
-3.229416e-01 3.077168e-03 2.332528e-05
-6.238674e-01 2.138668e-03 -5.695754e-06
-4.037522e-01 -4.207371e-03 -3.827568e-05
-1.836146e-02 -6.786036e-03 -2.995483e-05
1.199955e-01 -2.974098e-03 1.421292e-05
-1.817058e-01 2.601364e-03 2.356077e-05
-6.287157e-01 4.278845e-03 4.014932e-06
-2.986042e-01 -2.717736e-05 4.061249e-06
-1.301491e-01 6.348367e-04 2.097519e-05
-3.065250e-01 2.563539e-03 1.312253e-05
-4.014485e-01 -9.894980e-04 -2.697264e-05
1.892592e-01 -4.283272e-03 -4.832891e-06
1.899747e-01 -5.180352e-04 1.158196e-05
-2.731246e-01 7.819499e-04 -1.550912e-05
2.636812e-01 -1.130889e-03 2.086123e-05
-4.039278e-01 3.713466e-03 3.725038e-06
1.668490e-02 4.929943e-04 5.689263e-06
4.395880e-01 4.754790e-04 1.942268e-05
-9.490730e-02 2.119382e-03 -1.013645e-05
1.700135e-01 -1.524105e-03 -3.866021e-06
-2.282436e-01 -5.079865e-04 -3.372238e-05
3.355308e-01 -4.873248e-03 -2.946042e-05
9.082083e-02 -8.492800e-04 -2.659436e-05
2.725354e-01 -4.658933e-04 -5.455733e-06
3.069012e-01 -7.366457e-05 -8.306078e-06
9.182630e-01 -7.013978e-04 2.971624e-05
5.050048e-01 3.438219e-03 1.727035e-05
4.522225e-01 2.161970e-03 -1.237669e-05
1.068679e+00 -5.971746e-04 6.277802e-06
8.453428e-01 2.423782e-03 9.437650e-06
9.525671e-01 -3.283191e-04 -1.064651e-05
1.345891e+00 -1.660690e-03 2.020609e-05
7.572085e-01 5.418090e-03 2.734488e-05
8.159142e-01 3.172293e-03 5.120477e-06
1.015454e+00 -1.356943e-04 6.988849e-06
7.808276e-01 9.011031e-04 -1.415155e-05
1.552863e+00 -1.479462e-03 3.122965e-05
5.392318e-01 7.320739e-03 1.732960e-05
5.938274e-01 1.751434e-03 -3.131515e-05
1.529773e+00 -4.247076e-03 -6.603187e-06
8.319238e-01 4.475939e-03 5.118180e-06
4.512148e-01 2.471466e-03 -4.626389e-05
1.584233e+00 -4.147379e-03 9.260853e-06
8.722239e-01 6.059422e-03 5.361588e-05
3.075398e-01 6.079208e-03 8.509861e-07
1.077694e+00 -1.660184e-03 1.613830e-06
5.636840e-01 4.617537e-03 1.693227e-05
3.160746e-01 3.128715e-03 -1.547376e-05
5.569609e-01 -2.716148e-03 -4.190711e-05
1.467249e+00 -4.361112e-03 4.074769e-05
1.212838e-01 7.293814e-03 2.166603e-05
2.886199e-01 4.297946e-03 1.236885e-05
5.687667e-01 3.245570e-03 2.441095e-05
-2.870021e-01 6.980359e-03 -8.949317e-06
2.343130e-01 -6.589466e-04 -2.281145e-05
6.095399e-01 -2.398353e-03 6.862307e-07
2.268918e-01 2.316263e-03 2.201673e-05
3.802064e-01 2.569140e-03 3.898998e-05
-2.432053e-01 5.148762e-03 -8.854071e-07
4.153362e-01 3.571750e-04 1.175781e-05
-1.682776e-01 5.509493e-03 -9.990622e-09
-2.947528e-02 2.239690e-03 -7.001364e-06
2.061713e-01 -6.709008e-05 4.877365e-06
-4.736972e-01 4.377216e-03 -8.654304e-06
-1.361866e-03 1.593385e-04 -1.131277e-05
2.631117e-01 2.071881e-03 2.302847e-05
-2.510660e-01 4.734781e-03 -6.879026e-06
3.647459e-01 3.813487e-05 1.042096e-05
-6.060391e-01 7.491011e-03 2.593998e-06
-3.951659e-01 3.529835e-03 -7.384891e-06
-2.748449e-01 3.431428e-03 6.503093e-06
-4.600945e-01 6.791806e-03 6.227639e-06
-1.663688e-01 2.446655e-03 1.838539e-06
1.594028e-01 5.715811e-04 2.372754e-05
-6.421568e-01 3.378932e-03 -3.430772e-05
3.925217e-01 -6.758534e-03 -2.460732e-05
4.467380e-02 -6.735725e-04 -4.739411e-06
-9.669021e-02 1.533859e-03 -1.307889e-06
-1.767388e-02 4.584988e-04 -4.759488e-07
-1.509771e-01 2.980645e-03 6.713644e-06
-2.044510e-01 4.106000e-03 1.166638e-05
-6.370830e-01 2.280051e-03 -4.096771e-05
-1.160979e-02 -4.580680e-03 -4.592324e-05
3.902168e-01 -2.751732e-03 3.210926e-05
-6.705881e-01 9.629288e-03 4.834199e-05
-6.183791e-01 6.774448e-03 2.257353e-05
-2.260958e-01 2.451813e-03 -8.572143e-06
1.244189e-01 2.629954e-03 2.399322e-05
-7.493590e-01 6.177369e-03 -1.331646e-05
3.511611e-01 -2.615819e-03 1.789260e-05
-5.640690e-01 7.572784e-03 2.972201e-05
-7.349951e-01 5.628425e-03 -1.589287e-05
4.136459e-01 -5.603333e-03 -1.773324e-05
-1.125958e-01 -5.327984e-04 -1.977738e-05
3.135764e-01 -1.016525e-03 2.216715e-05
-2.551542e-01 4.849759e-03 2.971379e-05
-1.087582e+00 5.035925e-03 -4.181825e-05
5.376882e-01 -9.152695e-03 -1.948609e-05
-5.481990e-01 2.988142e-03 -1.033392e-05
-5.727611e-02 -5.107925e-04 -5.556895e-06
1.756652e-02 -2.608132e-03 -2.163997e-05
2.007244e-02 6.630189e-04 1.921496e-05
-7.512014e-01 6.713169e-03 7.894960e-06
-4.117955e-01 -6.158281e-04 -2.430067e-05
-5.509426e-02 -2.844559e-03 -1.829880e-05
-2.116332e-01 -2.823649e-04 -1.891110e-05
3.809818e-01 -2.293420e-03 2.738567e-05
-3.217783e-01 4.489034e-03 2.611897e-05
-5.527886e-01 3.009961e-03 1.017617e-05
1.181430e-01 -3.131141e-03 1.240214e-05
-2.223039e-01 -1.864673e-03 -1.908603e-05
3.565188e-01 -5.226191e-03 -2.480913e-06
-3.162960e-01 4.323429e-03 2.278294e-05
-6.955976e-01 5.252696e-03 4.050718e-06
1.456089e-01 -3.730339e-03 1.221113e-05
-4.617202e-01 3.265722e-04 -1.972902e-05
2.642228e-01 -6.107588e-03 -9.935882e-06
1.072590e-01 -1.379104e-03 1.676809e-05
-7.732379e-01 5.145649e-03 -1.269248e-05
1.300064e-01 -7.496312e-03 -3.785739e-05
2.173556e-01 -5.250303e-03 -1.136079e-05
-4.520168e-01 2.898923e-03 -4.173275e-06
3.092144e-01 -2.476706e-03 9.037582e-06
-1.776806e-01 1.923708e-03 6.042260e-06
-3.784081e-01 1.119367e-03 -3.873745e-06
3.040927e-01 -7.435710e-03 -2.480344e-05
9.924211e-02 -3.575957e-03 1.320918e-06
-3.587654e-01 2.330181e-03 1.218221e-05
-1.418240e-01 -2.458356e-03 -1.363008e-05
2.268896e-01 -4.430112e-03 -9.383316e-06
-9.600851e-02 2.777636e-04 1.019221e-05
-2.562100e-01 -2.454727e-04 -9.714586e-07
-1.244123e-02 -3.263962e-03 1.458263e-06
-3.125216e-01 -2.211293e-03 -2.799894e-06
7.278823e-02 -3.298852e-03 2.969934e-05
-8.061923e-01 7.715091e-04 -8.139480e-06
-8.086672e-02 -7.194603e-03 -2.651054e-06
-1.389840e-01 -3.760262e-03 3.589053e-05
-1.007981e+00 1.656206e-03 5.642079e-06
-9.321087e-01 -4.379393e-03 -4.575988e-05
-3.422043e-01 -4.507682e-03 3.867380e-05
-2.048359e+00 9.867179e-03 1.722061e-05
-1.113038e+00 -4.905209e-03 -2.295838e-05
-8.594530e-01 -6.736389e-03 -2.823756e-05
-5.316855e-01 -2.142642e-03 2.199782e-05
-1.171816e+00 4.854110e-03 5.896709e-06
-5.000806e-01 -2.847377e-03 -1.483530e-05
1.519616e-01 -5.290935e-03 1.129003e-05
-7.014861e-01 4.665716e-03 4.166171e-06
-2.030872e-01 -1.464797e-03 -2.493280e-05
6.632182e-01 -7.490807e-03 -1.649219e-05
4.179131e-01 1.745530e-03 2.758067e-05
2.838011e-01 8.534185e-04 -9.730818e-06
1.328609e+00 -8.056884e-03 -1.599464e-05
5.929933e-01 2.837736e-03 1.381062e-05
-5.387062e-02 8.754427e-03 1.454914e-05
6.599460e-01 -2.247447e-03 -9.496251e-06
6.606004e-01 -1.963550e-03 -9.804564e-06
3.368073e-01 1.688135e-03 -6.301320e-06
4.307348e-01 -4.907743e-04 -2.056722e-05
8.109314e-01 -2.353058e-03 -4.707264e-06
2.055654e-01 2.214953e-03 -1.410549e-05
8.470511e-01 -2.168474e-03 9.178246e-06
3.504040e-01 1.099510e-03 -8.611089e-06
1.299095e+00 -4.402517e-03 2.769887e-05
-5.349380e-01 7.755595e-03 -2.143750e-05
1.218072e+00 -7.674964e-03 1.890329e-05
2.296940e-01 2.454580e-03 2.011745e-05
-3.976319e-01 3.987502e-03 -1.808218e-05
8.032798e-01 -7.275676e-03 -8.134270e-06
2.321051e-02 5.819320e-04 -1.283379e-05
-5.460938e-02 -2.037141e-04 -8.467157e-06
-1.796435e-01 -3.371127e-03 -2.612779e-06
-8.537736e-01 -1.127369e-03 -3.082402e-05
3.537502e-01 -8.681583e-03 -2.262396e-06
-7.033880e-01 3.432565e-05 2.451971e-06
-7.747635e-01 -4.253858e-03 1.229601e-05
-1.925979e+00 -2.656406e-03 2.429611e-06
-2.218076e+00 -2.718197e-03 -1.152835e-06
-3.842677e-01 -5.210872e-03 -2.949071e-05
2.449487e+00 -8.026385e-03 -1.664078e-05
3.013325e+00 3.894070e-03 4.321281e-06
2.800737e+00 8.219398e-03 6.244334e-06
3.142465e+00 2.566749e-03 1.264107e-05
2.823460e+00 4.453552e-03 2.182564e-05
2.295938e+00 8.549590e-03 -1.275033e-07
2.700926e+00 -8.778068e-04 -1.055395e-05
1.085184e+00 2.570246e-03 -2.122693e-05
2.809413e-01 5.180408e-04 -1.575322e-05
-9.104698e-02 -1.834025e-03 -9.391664e-06
-1.938918e-02 -4.355614e-03 -1.286093e-05
-1.879516e-01 -2.705670e-03 1.258487e-05
-1.366716e+00 -7.119759e-04 -3.366961e-05
-1.811944e-01 -1.062136e-02 -1.856015e-06
-5.901022e-01 -2.431685e-03 6.705064e-06
-5.372291e-01 -2.756156e-03 5.014051e-07
-3.646419e-01 -9.401012e-03 -2.301802e-05
-4.772353e-01 -8.575260e-03 -8.046512e-06
-7.538728e-01 -2.313006e-03 9.472727e-06
-5.961258e-01 -9.522454e-04 2.187514e-05
-8.411966e-01 -2.173414e-03 -1.017556e-05
-5.696174e-01 -6.708438e-03 -1.791875e-05
-4.551409e-01 -6.769170e-03 -1.006378e-05
-2.934308e-01 -6.591935e-03 -2.384629e-06
-8.144708e-01 7.124546e-04 1.131326e-05
-6.965377e-01 3.641819e-03 4.962870e-05
-1.547880e+00 7.888224e-04 -4.984070e-05
6.272777e-01 -1.576577e-02 -9.636489e-06
-1.353627e+00 5.740240e-03 3.149281e-06
-9.445360e-01 -1.297101e-04 -5.289578e-06
-2.067965e-01 -4.579111e-03 2.734654e-05
-1.607144e+00 5.588363e-03 -1.102959e-05
-1.435860e-02 -7.658155e-03 3.124586e-06
-3.467811e-01 -1.849811e-03 1.571412e-05
-7.121199e-01 6.427931e-04 3.410470e-06
-3.216975e-01 -3.132504e-03 1.162980e-05
-4.671871e-01 -8.398526e-04 1.326961e-05
-5.069305e-01 -4.324344e-03 -2.471955e-05
-2.981283e-01 -3.557353e-03 4.278347e-06
-7.182513e-01 2.369560e-03 2.473936e-06
5.348604e-01 -5.940267e-03 1.991555e-05
-3.925913e-01 1.863762e-03 3.050630e-06
-2.074257e-01 9.254461e-04 2.623640e-05
-3.462240e-01 -2.233094e-03 -7.137367e-06
1.086242e-01 -6.475036e-03 -4.741693e-06
-5.139134e-01 -1.447909e-03 -1.841312e-05
3.383673e-01 -7.309732e-03 -8.815474e-06
-2.399679e-01 -1.418655e-03 -1.582781e-05
-2.666734e-01 1.715811e-03 2.444652e-05
-3.235407e-01 4.155086e-04 1.080171e-05
-7.966079e-02 -2.605584e-03 1.110517e-05
-6.439985e-01 2.643448e-03 2.577294e-06
-6.673922e-01 3.509275e-03 4.710931e-06
-1.976482e-01 -1.345912e-03 -2.111190e-06
8.444989e-02 -3.416208e-03 -2.506562e-06
-5.440275e-01 3.714124e-03 1.853896e-05
-6.366460e-01 4.536730e-03 2.920737e-05
-8.352851e-01 4.306589e-03 1.855468e-06
-7.294433e-01 3.782125e-03 -6.322880e-06
-5.500959e-01 2.277212e-03 2.871345e-06
3.238885e-02 -7.126924e-04 1.697444e-05
-7.125472e-01 3.364872e-03 -1.744354e-05
-2.838714e-01 -8.727228e-04 -7.177871e-06
-5.685481e-02 3.296058e-05 1.424335e-05
-4.132924e-01 2.060289e-03 -4.928849e-06
1.980585e-02 -7.434884e-04 3.324212e-06
-5.896715e-02 3.045975e-03 1.145301e-05
-1.126500e-01 2.182532e-03 6.940223e-07
2.863572e-01 -1.584397e-03 9.147873e-06
-4.385536e-01 5.127492e-03 6.690690e-06
-3.810853e-01 2.719045e-03 -2.247219e-05
5.014894e-01 -3.004124e-04 3.438863e-05
-1.131622e+00 1.335365e-02 -8.366805e-06
4.377602e-01 -1.738364e-03 -1.322512e-05
1.515307e-02 4.675754e-03 5.700711e-06
2.140849e-02 5.338537e-03 4.972586e-08
7.703021e-01 -9.763150e-04 -5.853326e-06
6.002930e-01 3.349108e-03 1.221254e-05
8.939643e-02 7.760614e-03 -6.121848e-09
7.615338e-01 2.364034e-03 7.627092e-06
6.974491e-01 4.481999e-03 9.164758e-06
6.965149e-01 3.617432e-03 2.749294e-06
5.374178e-01 4.679916e-03 -3.747723e-06
7.322747e-01 5.271855e-03 5.521738e-06
6.207208e-01 5.909950e-03 5.586573e-06
9.398198e-01 4.152918e-03 2.722549e-05
6.310348e-01 8.580370e-03 3.368226e-05
3.095905e-01 3.968616e-03 -3.151317e-05
1.280171e+00 -2.158844e-03 -5.894487e-06
2.017169e-01 9.842917e-03 -1.161805e-05
1.298089e+00 -2.838920e-03 -4.072170e-06
8.911330e-01 4.179126e-03 1.948572e-05
2.356244e-01 9.191628e-03 6.530534e-06
5.493618e-01 8.692423e-04 -3.165300e-05
9.815715e-01 -3.820066e-04 -1.714636e-07
2.722184e-01 7.337689e-03 1.671309e-05
6.794680e-01 2.609521e-03 1.392204e-05
5.105279e-01 2.206245e-03 2.862593e-07
5.666144e-01 1.626463e-03 1.973363e-06
2.003079e-01 6.113491e-03 3.886849e-06
1.529248e-01 5.469545e-03 -6.451148e-06
1.500189e-01 4.585419e-03 -7.925128e-07
9.930523e-02 6.784122e-03 2.671373e-05
-4.495009e-01 8.341816e-03 -4.822338e-06
6.914233e-01 -3.554524e-03 -3.472728e-06
-4.171264e-01 6.781484e-03 -9.029993e-06
3.313945e-02 2.771318e-03 -4.452440e-06
5.722927e-01 -5.060367e-04 2.182680e-05
-3.257967e-01 6.328308e-03 8.664240e-07
2.022530e-02 -1.035802e-03 -3.062035e-05
5.787248e-01 -3.051389e-03 1.076539e-05
-5.014982e-01 7.462582e-03 3.854949e-06
3.568846e-01 -1.600165e-04 1.740000e-05
-1.320951e-01 7.044249e-03 3.562321e-05
-1.512352e-01 4.310599e-03 1.339032e-06
2.906314e-01 -3.105138e-03 -1.286446e-05
-3.272968e-01 3.206407e-03 -9.042688e-06
8.127609e-02 1.220025e-03 7.898426e-06
-1.635008e-01 1.962082e-03 -8.863371e-06
-2.558013e-01 8.737280e-04 -1.910057e-05
3.155234e-01 -3.106864e-03 2.946812e-06
-3.247753e-03 2.014188e-03 1.826050e-05
-2.339815e-01 4.804708e-03 1.314039e-05
1.505911e-01 -7.283804e-04 4.227228e-09
2.279001e-01 6.147770e-04 1.696873e-05
-2.985646e-01 1.357495e-03 -2.004126e-05
6.251114e-01 -5.261075e-03 1.375099e-05
-8.789512e-01 7.473333e-03 -1.857307e-05
3.644138e-01 -3.089552e-03 -7.694633e-06
-1.635841e-01 8.945626e-04 -1.453939e-05
-7.675258e-01 4.484012e-03 -2.732292e-05
3.596729e-01 -3.786171e-03 -5.992897e-06
-2.863480e-01 3.955630e-03 8.218252e-06
-2.374947e-01 1.405478e-03 -1.603913e-05
6.911991e-01 -6.891139e-03 -2.325667e-06
-3.753183e-01 4.715429e-03 7.061924e-06
-2.870801e-01 9.684202e-04 -1.216312e-05
5.702396e-01 -3.895454e-03 1.724456e-05
-6.384484e-01 6.790302e-03 8.188927e-06
-4.255989e-04 -1.118455e-03 -6.496930e-06
1.763459e-01 -2.782022e-03 1.297805e-06
-1.758663e-01 2.385122e-03 1.863108e-05
3.183202e-01 -1.639599e-03 1.906787e-05
-3.847011e-01 -8.826377e-04 -4.487192e-05
8.831607e-01 -8.725353e-03 -2.597465e-06
-2.341994e-01 3.769475e-03 9.854468e-06
8.137886e-03 7.465036e-05 7.100604e-06
3.345647e-01 -2.118369e-03 1.911216e-05
-2.429191e-01 1.332324e-03 -3.242246e-06
8.737672e-02 -2.506536e-03 -5.445176e-06
2.430518e-02 -3.158525e-03 -1.301239e-05
2.474767e-01 -2.895852e-03 6.772252e-06
-2.722436e-03 9.477167e-04 7.679658e-06
1.367220e-02 -1.758161e-04 1.222507e-06
-3.279761e-01 1.485483e-03 -1.536790e-05
-3.842067e-01 8.754629e-04 -1.232520e-05
2.284195e-02 -1.632247e-03 2.770377e-06
-3.062318e-01 1.439440e-04 -2.049948e-05
2.076686e-01 -3.985634e-03 -1.236811e-05
-2.241870e-01 6.475340e-04 -3.339661e-06
7.919580e-02 -1.002822e-03 1.783691e-05
-1.522531e-01 1.058223e-03 1.646769e-05
-3.525325e-01 -2.188828e-03 -3.377342e-05
5.502154e-01 -9.198381e-03 -2.146527e-05
2.298331e-01 -1.151030e-03 3.159033e-05
-6.832349e-01 3.512437e-03 -3.536215e-06
3.860411e-01 -6.662917e-03 -9.032905e-06
1.376286e-01 7.321395e-05 2.415645e-05
-3.469414e-01 2.355433e-03 1.330135e-07
3.351410e-01 -5.416207e-03 2.740943e-07
-4.764427e-01 -6.206415e-04 -2.922305e-05
5.999491e-01 -7.795480e-03 -2.135356e-07
-3.529598e-01 6.910715e-04 -1.749754e-05
2.304836e-01 -5.480911e-03 -1.658075e-05
3.107448e-01 -5.117744e-03 -8.949427e-06
-1.780802e-01 -7.447123e-04 1.962680e-06
1.066258e-01 -4.856196e-03 -9.014258e-06
1.833262e-01 -6.448177e-03 -1.981126e-05
1.071417e-01 -2.068287e-03 5.822807e-06
6.896197e-02 -8.264446e-04 1.589917e-05
2.823848e-01 -5.232579e-03 -5.515454e-06
2.047899e-01 -4.435293e-03 -7.456727e-07
-4.104512e-01 1.620773e-03 -1.063898e-05
-7.186390e-02 -3.744368e-03 -1.960586e-05
8.929880e-02 -4.530852e-03 -1.763935e-06
-2.523679e-01 9.983785e-05 1.351918e-05
3.179505e-01 -3.382203e-03 1.983302e-05
-6.106620e-02 -1.967892e-03 -1.913265e-06
-1.924871e-01 6.032456e-05 7.021368e-06
-2.969004e-01 -1.649769e-03 -2.675006e-05
6.192441e-01 -1.135038e-02 -1.348610e-05
-1.771544e-01 -3.073450e-03 -9.023094e-07
-2.880314e-01 -1.884125e-03 -1.817715e-06
-2.252311e-01 -4.910010e-03 -1.449884e-05
-3.244426e-01 -2.284238e-03 1.026097e-05
-7.505877e-01 1.093911e-03 2.587665e-06
-1.661765e-01 -5.771039e-03 8.513230e-06
-5.613670e-01 2.287992e-04 3.384250e-05
-1.336352e+00 4.561148e-03 1.464303e-05
-7.547468e-01 -4.746634e-03 -4.659095e-06
-8.790686e-01 -2.775784e-03 -1.175256e-05
-9.138564e-01 -2.905743e-03 -1.478379e-05
-4.171372e-01 -6.622577e-03 -4.244050e-06
-6.515100e-01 -3.826042e-03 8.101656e-06
-6.459622e-01 -4.016535e-03 -4.331718e-06
-4.263522e-02 -6.205632e-03 2.734606e-07
-4.180343e-02 -3.965790e-03 -1.538660e-05
6.364625e-01 -6.645732e-03 1.074272e-05
-2.465430e-01 3.698612e-03 1.593395e-05
2.718695e-01 -1.308149e-05 1.397400e-05
5.012075e-01 -3.674944e-04 2.527054e-05
-1.461226e-01 5.683852e-03 2.224999e-06
1.014244e+00 -3.163962e-03 1.288061e-05
5.997456e-01 6.734807e-04 -5.539162e-06
7.254110e-01 -7.073406e-04 4.856141e-06
3.330274e-02 2.507190e-03 -3.149772e-05
1.282174e+00 -5.973966e-03 1.402590e-06
5.974433e-01 4.012996e-03 2.491583e-05
6.424184e-02 6.192061e-03 -1.154225e-05
8.275160e-01 -1.620908e-03 -8.908235e-07
1.688073e-01 7.193864e-03 1.037061e-05
3.302753e-01 1.313474e-03 -6.986722e-06
5.107072e-01 4.371597e-04 7.218174e-06
3.398589e-01 2.645710e-03 6.689096e-07
7.737572e-01 -3.785912e-03 -1.074509e-05
1.802510e-01 1.420433e-04 -1.239405e-05
6.567797e-01 -3.880857e-03 5.088874e-06
3.887064e-01 -8.347306e-04 5.098455e-06
2.662940e-02 2.964552e-03 8.692381e-06
2.239685e-01 2.451029e-05 5.831138e-06
-3.965661e-02 -8.013367e-04 -9.623442e-06
-3.783609e-01 -7.789366e-04 3.521441e-06
-8.147122e-01 3.267535e-03 3.257813e-05
-1.188617e+00 3.587622e-03 -1.977658e-05
-6.452187e-01 -5.935182e-03 -4.781957e-05
-9.336373e-01 -9.638810e-04 4.030205e-05
-3.195871e+00 9.887913e-03 -3.315574e-06
-1.853647e+00 -8.968576e-03 9.419829e-06
-2.001049e+00 5.406661e-03 6.018450e-06
9.395897e-01 2.848530e-03 -9.478288e-06
3.843615e+00 -8.650474e-04 1.655573e-05
2.628798e+00 1.496186e-02 -1.660753e-06
3.745109e+00 4.355164e-03 1.550969e-05
2.954865e+00 8.904358e-03 -6.668995e-06
2.755855e+00 4.252985e-03 -1.722319e-05
2.552207e+00 2.245510e-03 4.691138e-06
1.106761e+00 7.043780e-03 1.054459e-05
9.764554e-02 1.990469e-03 -1.919929e-05
-2.613731e-01 -4.551820e-03 -4.450136e-05
-1.500959e-01 -2.204373e-03 -1.360178e-06
-7.577188e-01 4.913880e-03 7.038750e-06
-9.166816e-01 -7.066554e-04 -4.527275e-06
-1.164641e+00 -2.580597e-03 -7.426400e-06
-9.428321e-01 -2.406073e-03 -6.278794e-06
-9.831822e-01 1.713768e-04 -1.346288e-06
-1.336979e+00 2.827337e-03 -2.240448e-06
-1.352635e+00 -7.887795e-04 -2.333487e-05
-4.920789e-01 -6.118191e-03 -2.586569e-06
-9.804465e-01 2.738127e-03 7.399757e-06
-1.210943e+00 1.326965e-03 -1.193748e-05
-9.956381e-01 -7.718835e-04 3.757503e-06
-1.515433e+00 3.455339e-03 -5.346017e-06
-6.194191e-01 -4.078263e-03 -1.116478e-05
-7.668238e-01 2.167105e-03 2.836374e-05
-1.400670e+00 6.166679e-03 1.633875e-05
-6.407911e-01 -3.794557e-03 5.427000e-06
-9.287743e-01 -9.370920e-04 -9.837513e-06
-4.256822e-01 -5.889495e-03 -1.875855e-05
-2.711807e-01 -3.995194e-03 9.837495e-06
-1.161812e+00 3.593768e-03 -4.112605e-06
3.166105e-02 -9.059706e-03 -1.641251e-06
-8.794236e-02 -2.666535e-03 3.016427e-05
-1.288669e+00 5.562289e-03 -1.375186e-06
-3.899410e-01 -3.658804e-03 -6.211196e-06
-7.015087e-01 1.774713e-03 2.906056e-07
-4.279940e-01 -1.727525e-03 -3.498327e-06
8.449179e-03 -5.316527e-03 -1.890979e-06
-2.611993e-01 -9.855149e-04 1.151961e-05
-5.203740e-01 1.417882e-03 1.736530e-05
-5.267077e-01 -1.565960e-03 -2.257070e-05
2.343884e-01 -1.146250e-02 -3.648768e-05
-4.762360e-02 -4.828755e-03 -2.619535e-06
-8.480436e-01 4.645269e-03 -1.656097e-05
3.396597e-01 -6.637001e-03 -1.267272e-06
-4.209654e-01 4.307764e-04 -6.204270e-06
-1.479276e-01 -1.486420e-03 5.962210e-06
-2.436050e-01 -1.691171e-03 1.111114e-05
-3.038051e-01 -3.422532e-03 -9.725181e-07
1.030571e-01 -4.221773e-03 9.932487e-06
2.186570e-01 -3.610457e-03 2.248365e-05
-1.968027e-01 -1.398755e-03 1.288516e-05
-8.412951e-01 4.699552e-04 -3.541929e-05
5.116759e-01 -6.657535e-03 2.475968e-05
-1.090796e+00 8.404493e-03 5.254772e-06
2.556645e-01 -5.239645e-03 -3.155309e-06
-1.601068e-02 -1.941747e-03 4.808994e-06
-6.456054e-01 4.274878e-03 5.068293e-07
-6.362530e-02 -7.206628e-03 -4.775808e-05
1.003553e+00 -1.311786e-02 -6.103654e-07
-7.714209e-01 4.351449e-03 -2.363282e-06
6.049963e-01 -8.241927e-03 1.809065e-05
-1.170112e-01 -1.475431e-06 9.418857e-06
1.726683e-01 -4.783106e-03 -1.882640e-05
3.862904e-01 -8.881473e-03 -2.835333e-05
-1.880546e-01 1.015841e-03 1.008679e-06
4.202695e-02 1.180587e-03 2.076197e-05
-6.070888e-02 3.384039e-03 3.131341e-05
-7.580623e-01 5.955443e-03 -1.351892e-05
5.469319e-01 -6.415713e-03 -6.577180e-06
-5.524648e-01 5.142680e-03 -1.274669e-05
-5.171576e-02 4.397367e-04 -9.244366e-06
5.131310e-01 -2.804969e-03 1.800711e-05
-3.115197e-01 3.477246e-03 -1.413000e-05
9.264185e-01 -5.313107e-03 8.538801e-06
3.823332e-01 3.182835e-03 1.831090e-05
5.259090e-01 2.607534e-03 1.657379e-05
7.151751e-01 -4.198482e-04 3.395901e-06
4.999843e-01 1.055601e-03 -8.425231e-06
8.080217e-01 6.713242e-04 -2.226503e-06
6.608761e-01 3.397333e-03 -2.154554e-06
9.899028e-01 -6.159829e-04 -2.876700e-06
1.235584e+00 -8.030227e-04 1.909542e-05
2.251884e-01 7.766744e-03 -6.134935e-06
1.432087e+00 -2.252884e-03 2.036315e-06
9.994004e-01 3.778269e-03 5.115903e-06
9.064635e-01 3.115827e-03 -9.286656e-06
1.223727e+00 -3.839492e-03 -3.427143e-05
1.383668e+00 -1.274820e-03 6.896008e-07
1.085676e+00 5.367492e-03 4.151259e-05
8.625006e-01 3.445446e-03 1.457349e-05
1.917974e+00 -7.413432e-03 5.355346e-06
1.044747e+00 1.324787e-03 1.284928e-05
5.179320e-01 5.162895e-03 -6.805622e-06
1.130893e+00 -1.421805e-03 -7.943038e-06
5.520130e-01 5.080537e-03 8.120628e-06
6.117057e-01 2.183808e-03 2.437377e-06
4.054253e-01 2.582627e-03 -4.979323e-06
5.061982e-01 5.514851e-03 2.722960e-05
-3.142823e-01 1.119383e-02 1.041917e-05
-6.162036e-02 4.811179e-03 -1.421911e-05
6.779927e-01 -1.098910e-03 3.315603e-07
5.469111e-02 4.875445e-03 -1.134779e-05
4.645564e-01 1.226101e-03 1.119725e-05
2.436213e-01 3.120321e-03 2.001296e-08
8.085247e-01 -2.246326e-03 5.897311e-06
-3.014420e-03 6.496161e-03 1.611934e-05
5.317673e-02 4.412937e-03 5.167365e-06
4.084290e-01 1.158754e-03 1.128565e-05
-4.886126e-01 7.612437e-03 -1.317923e-06
3.072627e-02 7.081346e-04 -3.787274e-06
-3.584769e-02 3.762112e-05 -2.354186e-05
-8.635307e-02 3.779993e-03 1.168232e-05
-2.008218e-01 7.488331e-03 2.590411e-05
2.560879e-01 1.005659e-03 1.936367e-06
2.946291e-01 -2.194083e-03 1.103995e-07
-7.067230e-02 2.653960e-03 4.240580e-06
3.171453e-01 -1.132607e-03 -5.832429e-06
4.305950e-01 -1.467642e-03 1.115712e-05
-1.832278e-01 4.626270e-03 1.447280e-05
-2.254449e-01 3.888094e-03 6.011471e-06
-3.206837e-01 4.341663e-03 7.848938e-06
-6.517148e-01 7.278030e-03 2.182737e-06
-5.728220e-01 5.342301e-03 -6.440240e-06
-1.362021e-01 9.372663e-04 3.521582e-07
-7.102456e-01 7.038329e-03 9.521115e-06
-9.165849e-01 7.378912e-03 -1.306523e-05
-8.139788e-02 -4.911286e-04 -4.815958e-06
-5.258975e-01 6.753452e-03 1.471004e-05
-5.630434e-01 8.085510e-03 1.290719e-05
-3.506361e-01 5.011039e-03 7.908308e-06
-8.070080e-01 7.517560e-03 -1.086513e-05
3.220346e-02 -5.872597e-04 -4.512333e-06
-4.032927e-01 2.912935e-03 -1.358946e-05
1.278662e-01 -1.103503e-03 6.453036e-06
-5.745887e-01 7.097223e-03 1.106623e-05
-4.381446e-01 6.095777e-03 1.146723e-05
-1.248411e-01 7.828501e-04 -1.226863e-05
2.083599e-01 -1.733203e-03 -1.580533e-06
-1.480381e-01 2.274507e-03 1.906022e-05
-2.498062e-01 2.990963e-03 1.187925e-05
-3.484600e-01 6.480764e-04 -1.628923e-05
-1.120860e-01 -3.603137e-04 -3.038574e-06
-6.218548e-01 5.786930e-03 -3.054152e-06
-1.794783e-01 -2.935138e-04 -4.833545e-06
-6.508740e-01 2.785211e-03 -1.771893e-05
-2.196917e-01 1.302011e-04 6.137579e-06
-7.646997e-01 4.971726e-03 -9.458994e-07
-1.805130e-01 3.695809e-04 -1.615394e-06
-5.598897e-01 5.199889e-03 1.080149e-05
-4.940292e-01 4.633850e-03 2.044650e-05
-3.726719e-01 1.125280e-03 -6.786493e-06
-4.535157e-01 1.784362e-03 -1.660788e-05
-3.623882e-01 4.271051e-03 1.539772e-05
-4.973733e-01 3.095994e-03 6.624478e-06
-2.164786e-01 -4.431930e-03 -3.006800e-05
-6.568318e-02 -4.255750e-03 -1.802845e-05
-4.200609e-01 2.203707e-03 1.181287e-05
-7.053574e-02 -9.066480e-04 9.208508e-06
-2.786284e-01 -9.394235e-04 -1.231684e-05
3.808068e-01 -3.849417e-03 1.651577e-05
-4.424573e-01 1.143231e-03 -9.086310e-06
1.900228e-01 -3.227659e-03 6.133545e-06
-6.823687e-01 5.232333e-03 1.440146e-06
1.913602e-01 -2.723373e-03 7.194428e-06
-1.449920e-01 -1.356204e-03 -1.375391e-05
-1.047524e-01 -1.854267e-03 -9.698299e-06
-2.812783e-01 -9.849412e-04 -1.168287e-05
5.290749e-02 -3.855137e-03 -2.471953e-06
-3.389318e-01 -1.214682e-03 -1.846490e-05
3.946736e-01 -5.669367e-03 -3.793733e-06
-5.855383e-01 2.744378e-03 -1.281862e-05
-1.150658e-01 -1.778457e-03 -1.281349e-06
-2.027408e-01 -1.282779e-03 2.683079e-06
-6.874634e-02 -3.547338e-03 5.209389e-06
-1.761846e-01 -3.277635e-03 -9.434894e-06
5.870353e-02 -3.325341e-03 5.596426e-06
3.551342e-02 -1.018020e-03 1.857829e-05
-1.393748e-02 -3.455932e-03 -8.296306e-06
1.333726e-01 -6.672408e-03 -1.474384e-05
2.040233e-02 -2.928082e-03 3.801405e-06
-2.286183e-01 -1.074973e-03 -9.136275e-06
5.402251e-01 -7.430683e-03 1.016510e-06
-8.756879e-02 -6.630790e-04 4.869031e-06
2.377561e-01 -4.754301e-03 7.675456e-07
4.552232e-02 -2.527609e-03 7.725542e-06
-3.209202e-01 5.797481e-04 -1.173196e-06
3.300261e-01 -5.355903e-03 -4.809973e-06
1.425460e-01 -4.296355e-03 -3.334076e-06
-4.106032e-02 -2.720564e-03 1.551522e-07
-1.165970e-01 -3.183610e-03 -4.924998e-06
-1.625060e-02 -4.279134e-03 -1.108578e-05
2.966470e-01 -6.260918e-03 -5.455831e-06
-2.571553e-01 -1.549099e-04 -3.606414e-06
-5.123080e-02 -1.565392e-03 3.096019e-06
1.921516e-02 -6.910574e-04 1.150762e-05
-7.668090e-02 2.847995e-04 -2.369606e-06
2.115646e-01 -4.159732e-03 -1.172276e-05
3.331481e-01 -6.991570e-03 -8.265144e-06
6.207688e-02 -2.172200e-03 6.549786e-06
-2.645948e-01 -1.878055e-04 -2.095970e-06
3.909797e-01 -6.749663e-03 2.213173e-06
2.137063e-01 -3.236336e-03 1.047357e-05
-8.206618e-03 5.314521e-04 2.001759e-05
-2.809749e-01 -1.621988e-04 -5.671967e-06
2.891076e-01 -6.880407e-03 6.103362e-07
-4.449170e-01 4.391752e-05 5.005401e-06
-3.623952e-01 -1.497769e-03 9.225781e-06
-4.260388e-01 -2.165549e-03 -1.000160e-06
-4.340556e-01 -7.672310e-04 1.361311e-05
-9.034529e-01 3.135246e-03 1.241982e-05
-5.562199e-01 -1.016157e-03 1.259845e-05
-8.591264e-01 6.589395e-04 9.445049e-06
-1.080945e+00 1.798184e-03 2.283323e-06
-9.149357e-01 -1.472435e-03 1.201436e-07
-1.141782e+00 -6.892803e-04 -9.030382e-06
-1.114453e+00 -4.120332e-06 4.934768e-06
-1.348220e+00 4.147897e-03 9.553448e-06
-6.844914e-01 -5.666858e-06 8.800836e-06
-3.576588e-01 -6.799332e-04 7.746252e-07
-4.621819e-01 3.591716e-04 -2.105132e-05
1.252908e-01 -7.970599e-04 1.434260e-05
-3.094381e-01 6.479797e-03 2.864051e-05
-3.211764e-01 3.732144e-03 -1.811308e-05
5.173398e-01 -3.292473e-03 -1.206835e-05
2.612139e-01 4.331661e-03 2.205406e-05
-1.008004e-01 7.304740e-03 -4.588235e-06
7.774308e-01 -1.878676e-03 -1.360202e-05
4.549682e-01 1.682680e-03 -5.095904e-06
6.243659e-01 9.343854e-04 4.153851e-06
3.723060e-01 2.158609e-03 -2.038133e-05
7.485930e-01 -6.411681e-04 -1.061798e-05
4.898139e-01 3.774483e-03 8.990107e-06
1.385702e-01 4.544485e-03 -9.774253e-06
7.582826e-01 -8.549761e-04 -2.818561e-06
1.205531e-01 5.917721e-03 -1.712897e-06
2.879686e-01 4.258089e-03 3.656310e-06
5.726024e-01 5.392201e-05 -2.983159e-07
2.312740e-01 1.936451e-03 -1.746643e-05
3.602727e-01 -8.006157e-04 -2.014546e-05
4.228463e-01 8.108241e-04 1.140347e-06
2.988387e-01 1.991693e-03 3.224092e-06
6.017794e-01 -2.228594e-03 -1.012658e-05
4.002039e-01 -1.978781e-03 -1.651555e-05
-3.648378e-02 1.012400e-03 -1.658845e-05
-4.339873e-01 -4.351700e-04 -2.008460e-05
-4.022518e-01 -2.393733e-03 -5.855410e-07
-5.920829e-01 1.439088e-03 1.441976e-05
-8.194269e-01 1.380228e-03 1.249576e-05
-1.331350e+00 6.292317e-04 9.054693e-06
-2.163761e+00 3.260255e-04 -2.591712e-06
-2.362209e+00 -4.667861e-03 -1.709035e-05
-1.011641e+00 -4.742035e-03 -9.518645e-06
1.778338e+00 -5.920303e-04 1.642260e-05
3.642592e+00 5.327104e-03 4.862365e-05
3.470157e+00 8.688843e-03 1.615408e-05
3.766873e+00 1.076534e-03 -1.449197e-05
3.481424e+00 2.648306e-03 -8.535573e-06
2.503098e+00 6.958211e-03 -2.998039e-05
3.098109e+00 -3.542769e-03 -1.816960e-05
1.474156e+00 3.730169e-03 -7.630457e-06
5.283841e-01 -8.651697e-04 -2.098436e-05
1.322686e-01 -7.147874e-03 -3.539601e-05
-8.411834e-02 -4.500632e-03 -1.984100e-05
3.728413e-02 -3.673413e-03 -1.832005e-06
-2.126113e-01 -5.670710e-03 5.309109e-06
-7.398254e-01 -6.559016e-03 -1.996819e-05
-1.330378e-01 -1.017112e-02 -1.681571e-05
-4.220212e-01 -3.555506e-03 -3.617355e-06
-3.559056e-01 -5.143917e-03 1.566477e-06
-6.452247e-01 -6.533845e-03 -1.399748e-05
-5.316645e-01 -5.866406e-03 -6.629715e-06
-4.798396e-01 -4.326445e-03 -7.029445e-06
-5.522854e-02 -8.390743e-03 -5.622327e-06
-3.813014e-01 -7.556143e-03 -8.421249e-06
-3.046603e-01 -7.516081e-03 -2.399463e-06
-1.648469e-02 -7.604355e-03 4.976957e-06
-1.456972e-01 -7.730261e-03 -7.847612e-06
1.373318e-01 -9.137875e-03 -9.962206e-08
-6.991898e-02 -6.522258e-03 1.981835e-06
-2.972548e-05 -7.490418e-03 8.658081e-07
-4.059999e-02 -6.573351e-03 6.713830e-06
-4.616152e-01 -3.076928e-03 -3.312161e-06
4.199801e-02 -8.050606e-03 -9.703813e-07
2.627231e-02 -6.632156e-03 4.092521e-06
-2.502984e-01 -3.459757e-03 -1.580387e-06
-1.194430e-01 -4.209581e-03 3.262510e-06
-3.573413e-01 -2.033523e-03 1.476950e-06
3.964595e-02 -5.480007e-03 4.559438e-06
1.396684e-01 -5.280344e-03 -2.252339e-06
9.003470e-03 -5.101367e-03 -6.850047e-06
3.147004e-02 -6.670418e-03 -9.715136e-06
2.022268e-01 -6.785456e-03 -3.317602e-06
4.346415e-02 -4.469515e-03 9.131412e-08
6.754848e-01 -9.088969e-03 8.015754e-06
4.768236e-01 -6.086996e-03 6.584898e-06
1.965492e-01 -3.469437e-03 5.458265e-06
-3.164100e-02 -4.006965e-03 -5.780657e-06
1.769231e-01 -5.057246e-03 -8.194476e-07
-2.513734e-01 -1.157151e-03 -8.224369e-06
6.816523e-02 -4.006481e-03 -6.497696e-06
-1.684968e-01 -1.338632e-03 1.362461e-06
-1.084388e-01 -6.749067e-04 1.990243e-05
-3.765813e-01 1.961430e-03 1.468846e-05
-4.505522e-02 -1.967267e-03 -2.301935e-07
7.804805e-02 -3.821270e-03 8.764504e-06
-2.097119e-01 -2.499519e-04 9.629205e-06
-9.134899e-02 -1.873920e-03 2.516897e-06
-2.622843e-01 -3.527744e-04 -1.835579e-06
-4.275699e-01 6.842041e-04 7.699880e-07
-1.418895e-01 -1.963764e-03 2.234206e-06
-7.857621e-02 -1.935427e-03 7.638224e-07
-1.669097e-01 1.422920e-04 1.117495e-05
-1.657974e-01 2.798096e-04 1.011085e-05
4.775168e-02 -2.507225e-03 6.071577e-06
-3.521419e-01 8.357648e-04 -4.882837e-06
-2.801031e-01 -5.124762e-04 5.782962e-08
-3.423342e-01 3.168928e-04 -1.060097e-05
-2.131277e-01 3.893105e-04 -7.557133e-06
-1.288009e-01 1.535390e-03 -2.418695e-07
2.361719e-02 8.870549e-04 1.088200e-05
-3.195277e-01 3.127181e-03 1.072441e-05
-2.165401e-01 3.366871e-03 1.019201e-05
-2.018995e-01 3.670569e-03 -5.163164e-08
-5.509483e-02 2.703529e-03 3.931354e-06
-2.748858e-01 5.257616e-03 7.355106e-06
-2.594467e-01 4.605496e-03 6.986284e-06
-5.570410e-01 7.089139e-03 3.022610e-06
-5.564651e-01 9.007093e-03 7.674959e-06
-2.717863e-01 9.071545e-03 1.623116e-05
-2.580670e-01 9.790136e-03 1.204626e-05
3.917961e-02 7.992931e-03 2.014056e-05
1.990105e-02 8.595943e-03 1.451956e-05
4.351733e-01 6.044596e-03 1.329576e-05
4.001713e-01 8.682039e-03 1.702361e-05
2.161031e-01 1.027760e-02 1.433978e-05
5.150047e-01 6.724361e-03 6.805638e-06
4.774815e-01 6.772932e-03 5.896617e-06
4.055610e-01 5.854611e-03 -6.458666e-06
5.916055e-01 3.397378e-03 -6.659465e-06
6.013952e-01 6.174450e-03 6.701467e-06
5.749141e-01 7.378199e-03 1.169319e-05
6.434863e-01 6.265555e-03 1.524755e-05
4.429846e-01 7.323341e-03 9.024354e-06
4.713286e-01 6.660741e-03 1.157510e-05
2.319149e-01 8.940590e-03 9.354768e-06
2.314982e-01 7.744180e-03 2.648706e-06
7.223002e-02 8.262856e-03 3.384804e-06
-3.577510e-01 1.106836e-02 1.357859e-06
-2.138171e-01 1.152257e-02 7.608717e-06
-5.461964e-01 1.408452e-02 1.195045e-05
-7.321999e-01 1.503539e-02 5.869668e-06
-5.208756e-01 1.141226e-02 -2.866266e-06
-2.882674e-01 9.289680e-03 3.129970e-07
-3.934736e-01 8.698437e-03 6.429312e-06
-3.141111e-01 8.860443e-03 1.626436e-05
-5.284584e-01 9.859600e-03 1.449705e-05
-3.970190e-01 7.243867e-03 9.857353e-06
-3.929973e-01 7.431339e-03 7.583541e-06
-5.353355e-01 7.828074e-03 -1.840704e-06
-1.713674e-01 4.503817e-03 1.224070e-05
-5.754254e-01 8.777584e-03 8.013697e-06
-3.019201e-01 6.359107e-03 1.104430e-05
-5.264721e-01 7.903882e-03 5.860259e-06
-4.868761e-01 6.670497e-03 1.976866e-07
-5.344058e-01 6.105970e-03 4.338371e-06
-8.605057e-01 7.935080e-03 -1.052049e-05
-4.428192e-01 3.859678e-03 -1.632170e-06
-6.342753e-01 7.016457e-03 2.338207e-06
-5.120871e-01 5.100704e-03 5.610471e-06
-3.375374e-01 3.374016e-03 4.901992e-06
-3.420628e-01 3.086499e-03 -4.045859e-06
-1.947329e-01 7.641873e-04 -3.259291e-06
-4.053234e-01 3.136038e-03 -7.096140e-06
-2.636198e-01 2.386729e-03 8.221838e-06
-6.426401e-01 6.803475e-03 1.255156e-05
-6.970249e-01 5.837462e-03 -5.246897e-06
-6.237072e-01 2.965305e-03 -1.348767e-05
-7.970317e-01 5.412492e-03 -8.771418e-06
-5.008345e-01 4.488286e-03 1.417543e-05
-8.151188e-01 6.975367e-03 1.269333e-05
-5.077052e-01 3.656120e-03 7.764526e-07
-3.810910e-01 2.889478e-03 1.025469e-05
-7.609811e-01 6.279567e-03 8.044715e-06
-3.813325e-01 1.944875e-03 5.089105e-06
-2.677951e-01 2.104029e-03 1.056292e-05
-4.821096e-01 3.291350e-03 -4.915933e-06
2.773172e-03 -1.635543e-03 -9.799061e-06
-3.395731e-01 2.449013e-03 -4.818284e-06
-2.955249e-01 2.313910e-03 -1.475717e-06
-1.095344e-01 5.003333e-04 -5.405394e-06
2.384562e-03 -1.230915e-03 -4.377245e-06
-2.479104e-01 -5.498153e-04 -1.363456e-05
-1.213794e-01 -2.277525e-03 -8.762140e-06
8.649359e-02 -2.097154e-03 4.029877e-06
-8.184347e-02 -2.311361e-03 -1.016317e-05
1.771705e-01 -5.444444e-03 -1.835466e-05
2.788529e-01 -3.824373e-03 -1.088942e-05
2.361916e-01 -3.189850e-03 -4.068522e-06
2.127841e-01 -3.811678e-03 -2.932790e-06
1.099084e-01 -3.948038e-03 -6.687191e-06
2.100537e-01 -4.156675e-03 -2.217268e-06
9.180078e-02 -1.590705e-03 6.274895e-06
-4.291842e-02 -1.704643e-03 -7.285027e-06
4.544275e-01 -5.149449e-03 6.224254e-06
-1.145921e-01 -8.747675e-05 5.897225e-06
5.008278e-02 -2.326698e-03 3.645685e-06
-4.737175e-02 -1.744968e-03 6.743479e-07
-1.820337e-01 -1.008623e-03 -9.807517e-06
3.746034e-01 -5.749599e-03 6.632334e-06
1.833856e-02 -2.310461e-03 5.889562e-06
8.710811e-02 -3.920951e-03 3.325873e-07
6.095445e-02 -4.753003e-03 -3.887121e-07
1.467285e-01 -4.584149e-03 4.419217e-06
3.125156e-01 -5.828586e-03 -3.634025e-06
3.216159e-01 -5.280516e-03 -6.972112e-06
-1.750035e-02 -2.601250e-03 -1.201057e-05
3.445383e-01 -5.059092e-03 -1.093003e-05
1.138683e-01 -3.838886e-03 -1.387351e-05
3.325693e-01 -6.446304e-03 -6.675499e-06
3.735621e-01 -6.802523e-03 -7.492447e-07
2.011441e-01 -5.318733e-03 -1.189465e-05
6.043883e-01 -8.865887e-03 -1.177920e-05
5.614341e-01 -7.072743e-03 -6.102481e-06
4.570747e-01 -5.586601e-03 4.442666e-07
3.199226e-01 -5.682218e-03 -6.854826e-06
2.830282e-01 -5.642699e-03 -6.805345e-06
1.161116e-01 -3.719015e-03 -7.661431e-06
1.048550e-01 -4.295329e-03 -4.819561e-06
6.689671e-02 -3.169095e-03 2.024258e-06
-1.372434e-01 -2.583215e-03 -1.638737e-06
1.598594e-01 -4.662271e-03 -4.094132e-06
2.515556e-01 -4.365074e-03 -3.810648e-06
2.971993e-01 -4.987704e-03 -1.356380e-06
2.995563e-01 -5.594713e-03 -2.509121e-06
8.741029e-02 -5.271880e-03 -8.356603e-06
1.279536e-01 -5.952022e-03 -5.766783e-06
3.557962e-02 -3.966248e-03 -6.996111e-06
1.389252e-01 -3.154124e-03 7.866826e-06
9.753905e-02 -2.720830e-03 8.002267e-06
1.324281e-01 -4.672972e-03 -7.718561e-06
2.186008e-01 -6.077451e-03 -1.268771e-05
1.288636e-01 -4.861077e-03 -1.118701e-05
1.917768e-01 -4.255835e-03 -9.489547e-06
3.829877e-01 -5.118915e-03 8.331232e-07
1.214352e-01 -3.583102e-03 -2.561431e-06
2.335225e-01 -5.615035e-03 -8.910606e-06
-1.092873e-01 -5.707915e-03 -1.661943e-05
-1.834043e-01 -6.257592e-03 -1.164882e-05
-9.610816e-02 -5.799158e-03 -4.934586e-06
-2.562590e-01 -5.349141e-03 -6.056946e-06
-2.727851e-01 -5.447761e-03 -7.147298e-06
-5.857989e-01 -3.624174e-03 -4.194587e-06
-8.194653e-01 -3.305650e-03 -7.091840e-06
-6.046261e-01 -5.511473e-03 -6.191483e-06
-9.116502e-01 -2.466187e-03 -3.848522e-06
-1.068232e+00 -1.559998e-03 -6.627420e-06
-7.959565e-01 -2.746047e-03 -6.134663e-06
-5.282687e-01 -2.476038e-03 1.032262e-06
-4.246457e-01 -1.823936e-03 -5.711072e-06
-1.348627e-01 -4.222857e-03 -1.177488e-05
1.127069e-01 -3.400001e-03 -4.536605e-06
2.700524e-01 -2.109628e-03 9.748901e-06
3.615586e-01 -2.322668e-03 5.409161e-06
7.346464e-01 -5.178846e-03 -1.989409e-06
7.799985e-01 -3.133982e-03 -3.104639e-06
6.700016e-01 -1.353663e-03 -8.933303e-06
1.217445e+00 -5.385929e-03 -4.461677e-06
1.092140e+00 -3.254948e-03 2.000858e-06
1.038840e+00 -2.615671e-03 5.101381e-06
9.816407e-01 -3.317042e-03 1.400712e-06
1.049970e+00 -3.109168e-03 -5.994893e-07
1.061167e+00 -2.800284e-03 1.086476e-07
1.075137e+00 -3.025119e-03 1.417839e-06
9.204893e-01 -3.402725e-03 -6.575302e-06
7.080576e-01 -2.264790e-03 -9.214803e-06
4.901544e-01 -4.033554e-04 -7.281387e-06
6.693348e-01 -7.787018e-04 -5.681689e-06
6.546902e-01 -6.915949e-04 -5.357884e-07
4.096983e-01 6.013967e-04 -1.874353e-06
4.590932e-01 -5.609768e-04 -8.222958e-07
1.657968e-01 5.777523e-04 3.014842e-07
1.238655e-01 4.729797e-04 4.623753e-07
2.609818e-02 -6.254130e-04 -1.014632e-05
-5.021518e-02 -1.411191e-03 -5.823201e-06
-7.155024e-01 1.649697e-03 1.247555e-06
-4.272970e-01 2.395191e-04 4.102877e-06
-8.801604e-02 -2.717765e-05 6.919084e-06
-6.811962e-01 6.905115e-04 4.249758e-06
-1.391900e+00 -1.631907e-03 7.812279e-07
-2.150605e+00 -2.190302e-03 -9.737289e-06
-1.864604e+00 -3.716241e-03 -2.083751e-05
5.592516e-01 -4.680438e-03 -4.012693e-06
2.361959e+00 -9.576360e-04 -1.134360e-05
4.009861e+00 -4.634586e-03 4.796404e-06
3.204696e+00 2.013449e-03 8.399647e-06
3.421866e+00 -1.285017e-04 9.516610e-06
3.186630e+00 -8.939999e-04 -8.707358e-06
3.125078e+00 -1.818495e-03 -5.113970e-06
2.149748e+00 1.157467e-03 -2.452062e-06
9.743220e-01 1.561295e-03 2.010450e-06
3.149458e-03 2.480960e-03 -1.163686e-06
-3.057871e-01 1.496888e-03 4.911168e-07
-5.483585e-01 2.780718e-03 -1.365166e-07
-8.354990e-01 1.610109e-03 -3.376329e-06
-1.359898e+00 2.496124e-03 -1.927355e-06
-1.469878e+00 3.055097e-03 -4.335894e-06
-1.075059e+00 1.548281e-03 1.024514e-06
-1.312778e+00 2.645857e-03 8.933735e-07
-1.369234e+00 3.019489e-03 1.615968e-05
-1.577218e+00 4.309522e-03 1.086729e-05
-1.247192e+00 8.476966e-04 -3.744325e-06
-8.864714e-01 -7.198456e-05 3.611581e-06
-1.330780e+00 3.051033e-03 1.076634e-06
-1.170455e+00 -2.624579e-04 2.792888e-06
-1.092965e+00 1.843940e-03 4.674957e-06
-1.096207e+00 2.373723e-03 -8.113743e-06
-7.476621e-01 -8.171049e-04 -4.817565e-06
-1.171076e+00 3.117558e-03 -4.754612e-06
-1.068757e+00 1.718049e-03 -9.808190e-06
-8.800662e-01 3.936746e-05 -1.448269e-05
-8.671043e-01 -4.944300e-04 -4.657892e-06
-9.547571e-01 6.554993e-04 1.031721e-06
-7.200293e-01 4.210992e-04 3.946261e-06
-4.059340e-01 1.239758e-05 1.363841e-05
-7.593796e-01 2.226961e-03 1.413427e-06
-5.502754e-01 -2.031998e-04 5.484408e-07
-5.952873e-01 6.976409e-04 4.825267e-06
-5.611021e-01 1.319049e-03 7.275788e-06
-4.726780e-01 8.261253e-04 7.708956e-06
-4.716298e-01 7.166964e-04 2.929737e-06
-3.658620e-01 1.197543e-03 6.847843e-06
-6.786777e-01 4.352106e-03 1.079183e-05
-6.303632e-01 2.996289e-03 2.773685e-06
-4.280481e-01 1.380255e-04 -2.915300e-06
-5.871698e-01 1.991417e-03 -5.693380e-06
-5.385074e-01 4.953087e-04 -4.394692e-06
-3.834690e-01 -4.091639e-04 3.802892e-07
-3.322442e-01 8.337270e-04 9.462214e-06
-3.394352e-01 1.318898e-03 1.469826e-05
-4.212203e-01 1.571551e-03 3.718598e-06
-3.337232e-01 2.884283e-04 -1.722697e-06
-4.568203e-01 1.957801e-03 -2.669076e-06
-3.783041e-01 1.176849e-03 -8.542622e-06
-1.749669e-01 -1.131277e-03 3.725731e-06
-6.965063e-01 4.681823e-03 9.581059e-06
-3.685400e-01 2.522141e-03 4.198870e-06
-1.312253e-01 -1.841932e-04 1.032369e-06
-3.429735e-01 1.624235e-03 7.520950e-06
-5.417793e-01 2.230575e-03 -1.655638e-06
9.330783e-03 -1.704474e-03 3.562282e-06
-3.223951e-01 1.466251e-03 1.299186e-06
3.766615e-02 -1.356705e-03 -2.329759e-07
-2.277344e-02 -9.009923e-04 -2.592165e-06
-2.203366e-02 -1.524134e-04 7.507965e-06
-1.782515e-01 2.225659e-03 4.934935e-06
-2.721965e-01 1.344316e-03 -1.120192e-05
5.551655e-02 -1.580234e-03 2.028738e-06
-3.291385e-01 3.933903e-03 4.893232e-06
-1.803624e-01 2.590459e-03 3.272251e-06
-4.810998e-02 2.206198e-03 1.076160e-05
-1.835637e-01 4.219131e-03 7.286932e-06
-1.252749e-01 1.358799e-03 -7.448467e-06
2.812558e-01 2.660030e-04 2.330742e-06
1.180430e-01 3.519425e-03 5.331202e-06
2.000757e-01 1.423954e-03 -5.204236e-06
3.705106e-01 -5.496547e-04 3.061043e-07
2.662989e-01 2.294300e-03 1.235459e-06
3.652399e-01 2.325032e-03 6.989501e-06
4.453794e-01 2.905214e-03 1.524016e-05
4.509716e-01 3.681700e-03 7.865021e-06
7.645363e-01 1.580848e-03 1.368867e-05
6.814901e-01 4.169156e-03 1.447004e-05
8.953587e-01 2.158518e-03 1.060146e-05
8.564557e-01 1.903530e-03 -1.197007e-06
8.670728e-01 1.354644e-03 -6.719242e-06
8.885094e-01 1.174922e-03 -5.140199e-06
8.081607e-01 2.803498e-03 -1.929826e-06
9.531793e-01 2.793934e-03 1.108544e-05
7.542289e-01 3.267201e-03 4.512641e-07
1.137149e+00 3.622568e-04 5.612845e-06
7.039389e-01 4.091980e-03 -8.628770e-06
8.575510e-01 1.401428e-03 -2.714659e-06
6.680045e-01 4.586911e-03 1.518508e-05
8.763740e-01 5.042905e-03 2.036505e-05
9.065301e-01 3.093988e-03 3.802600e-06
9.923925e-01 2.092289e-03 6.790416e-06
9.079103e-01 3.007776e-03 9.552517e-06
7.875368e-01 1.598759e-03 5.191683e-06
5.175664e-01 7.147693e-04 -6.677643e-06
6.146073e-01 8.818309e-04 7.026512e-06
2.638379e-01 5.868776e-03 1.091420e-05
3.549773e-01 3.660024e-03 2.372845e-06
4.905477e-01 2.041541e-03 4.848988e-06
1.168176e-01 4.220039e-03 -7.368125e-06
4.441673e-01 -2.461657e-04 -2.038543e-05
5.245206e-01 -8.935035e-04 -9.490826e-06
1.805761e-01 2.736639e-03 -9.007155e-07
5.353876e-01 -2.654826e-04 5.980962e-06
3.800353e-01 1.300134e-03 2.993306e-06
3.074460e-01 8.291133e-04 -7.781105e-07
8.766562e-02 1.322538e-03 -7.199509e-06
3.223372e-01 -2.085361e-04 3.710732e-06
7.670507e-02 2.591547e-03 4.988410e-06
3.636415e-02 2.842506e-03 4.884540e-06
-2.856355e-01 4.155862e-03 4.096127e-06
-2.548660e-01 2.947039e-03 -3.164594e-06
-8.206730e-02 1.308292e-03 -1.871264e-06
-1.359966e-01 2.321660e-03 4.756080e-06
-9.711295e-02 1.350762e-03 4.629786e-06
5.684699e-02 1.157881e-03 9.932653e-06
-3.096081e-01 2.572753e-03 4.929784e-07
2.064790e-01 -2.436065e-03 5.185765e-06
-1.972251e-01 1.251908e-03 2.598439e-06
1.266859e-02 3.532953e-04 1.188888e-05
-1.721765e-01 1.826774e-03 7.312762e-06
-9.240600e-02 1.285963e-03 4.542121e-06
-1.452139e-01 7.979316e-04 -1.195691e-06
-2.724209e-01 9.474322e-04 -5.360688e-06
-3.836166e-01 2.678147e-03 -4.022680e-07
-3.062166e-01 3.257629e-03 -1.111248e-06
-1.487577e-01 2.066718e-03 -2.086375e-07
-2.381024e-01 3.212134e-03 -5.399940e-07
-2.415366e-01 1.997218e-03 -1.203727e-05
-1.712634e-01 1.160764e-04 -5.925834e-06
-4.040630e-01 3.161740e-03 -4.941962e-07
-1.642898e-01 5.004684e-04 -1.063280e-05
9.279081e-02 -1.571589e-03 -7.910131e-06
-4.894197e-03 4.421635e-04 -9.846967e-07
1.968139e-01 -7.840935e-04 -3.847571e-08
1.872041e-01 -1.271087e-03 1.597021e-06
1.709656e-02 3.770103e-05 9.470446e-06
-9.592162e-02 3.245425e-04 2.563681e-06
-7.734698e-02 -1.249733e-03 -7.210337e-06
-6.815003e-02 -1.101293e-03 -1.718842e-06
-3.097780e-01 1.298202e-03 -6.429875e-06
5.485818e-02 -2.669888e-03 -8.293646e-07
-2.852879e-02 -4.623907e-05 1.232751e-05
-5.052716e-02 2.943731e-04 1.242397e-06
5.502281e-01 -4.040129e-03 1.418970e-05
-1.491686e-01 1.776448e-03 9.579918e-06
-7.329585e-02 -7.656005e-04 -1.814243e-06
-1.504040e-01 -1.570825e-03 -9.712669e-06
-1.571182e-01 -9.732548e-04 -2.875955e-06
-1.516835e-01 8.240305e-04 1.812556e-06
-1.412041e-01 6.829378e-04 3.117565e-06
-3.246162e-01 1.054159e-03 -1.799579e-06
-2.915801e-01 1.002731e-03 2.294228e-06
-2.475024e-01 1.055967e-03 1.017285e-05
-2.570686e-01 -2.408898e-04 -2.497766e-06
3.299326e-02 -3.215373e-03 -5.599280e-06
-2.451146e-01 -3.745860e-04 -1.060338e-05
-8.223221e-02 -2.724312e-03 -1.608690e-05
1.240011e-01 -2.801084e-03 -1.135646e-05
-1.208836e-01 4.117609e-04 -5.645724e-06
7.900564e-02 -2.037585e-03 5.504762e-06
-3.462927e-02 -1.187359e-03 -2.364740e-06
9.439661e-02 -2.916462e-03 1.172723e-06
-1.495486e-01 -7.426701e-04 3.796987e-07
7.455257e-02 -2.532937e-03 -2.267847e-06
1.948709e-01 -3.159822e-03 7.908006e-06
-2.659056e-01 3.552516e-04 3.603809e-06
5.706886e-02 -2.825560e-03 -1.239708e-06
-9.666208e-02 -1.486393e-03 -3.245513e-06
-2.380368e-01 -2.011719e-04 -9.685438e-06
4.529590e-03 -1.868674e-03 2.578290e-08
-3.094428e-01 7.437058e-04 -3.101469e-06
-1.317362e-01 -1.014431e-03 6.657066e-06
-2.143893e-01 1.694982e-03 5.541323e-06
4.799553e-02 -1.051593e-03 7.374285e-06
-1.509865e-01 -3.700117e-04 1.779993e-06
-1.849104e-01 -5.996690e-04 3.580040e-06
-4.296300e-01 -1.268108e-03 -1.722630e-05
2.735923e-02 -4.753444e-03 -6.821239e-06
-4.798091e-01 1.155631e-03 -1.096479e-05
1.147876e-01 -3.373162e-03 -4.058594e-06
-1.113699e-01 -1.196336e-03 -3.812700e-06
-1.008083e-01 -1.148969e-03 3.432367e-07
-2.832634e-01 5.156443e-05 -7.864925e-06
-2.859777e-02 -2.929989e-03 -6.819093e-06
-2.506955e-01 -7.212156e-05 -1.016006e-05
-1.288211e-01 -1.770169e-03 -1.091404e-05
-5.835464e-02 -2.956460e-03 -3.904273e-06
-1.096833e-01 -6.868795e-04 -1.278418e-06
-5.999711e-02 -9.085725e-04 -5.945595e-07
-4.867652e-03 -1.894390e-03 1.513657e-06
-1.117433e-01 -1.125950e-03 2.155199e-06
-2.209829e-01 -2.057779e-03 -1.328706e-06
-2.216290e-01 -2.575412e-03 2.803905e-06
-2.982586e-01 -2.286702e-03 -3.131283e-07
-3.662468e-01 -2.495371e-03 5.846129e-06
-5.136621e-01 -1.718764e-03 1.749579e-07
-5.068633e-01 -2.449232e-03 4.277138e-06
-7.888927e-01 -3.402989e-04 2.693527e-06
-7.622790e-01 -1.249345e-03 4.049896e-06
-8.376747e-01 -1.485789e-03 -4.037506e-06
-8.853252e-01 -2.559103e-03 1.805183e-06
-1.169564e+00 -1.697323e-03 -5.839421e-06
-9.267966e-01 -3.386478e-03 -1.114259e-05
-7.135260e-01 -2.486631e-03 -9.433923e-06
-5.570029e-01 -1.824114e-03 -8.796204e-06
-3.443857e-01 -1.248798e-03 -2.986634e-06
-2.401248e-01 -1.613116e-04 1.205384e-06
-5.044678e-02 -6.572223e-04 -2.181232e-06
2.248931e-01 -8.342001e-04 1.105881e-05
1.914924e-01 1.225667e-03 -2.621234e-07
6.218033e-01 -3.034797e-03 -1.064225e-05
6.009812e-01 -1.803221e-03 -1.027387e-05
6.550286e-01 -1.096292e-03 -8.145474e-06
9.728758e-01 -2.223035e-03 -1.879809e-06
6.929948e-01 -3.728148e-04 -1.023639e-05
1.031813e+00 -2.087652e-03 5.560519e-06
6.289223e-01 1.595829e-03 9.689982e-06
8.078812e-01 -1.090499e-03 -1.575022e-06
9.010209e-01 -2.940016e-03 -5.794581e-06
6.837986e-01 -6.372889e-04 2.558637e-06
6.862564e-01 -1.652263e-03 -1.296092e-06
8.826867e-01 -3.337130e-03 6.513194e-06
6.177759e-01 8.020638e-04 1.412170e-05
6.482824e-01 -5.320370e-04 1.171749e-05
5.899211e-01 -2.085483e-03 1.378726e-06
3.363016e-01 -1.252850e-03 -6.282424e-06
4.912833e-01 -2.002836e-03 -9.813764e-06
5.779631e-01 -2.781791e-03 -6.535031e-06
2.547384e-01 -2.767318e-04 -9.730355e-06
3.498638e-01 -2.484397e-03 -1.671628e-06
-4.684696e-01 8.827807e-04 2.390067e-06
-6.162257e-01 -8.409922e-04 1.109844e-05
-5.685997e-01 -5.095108e-04 -1.273637e-06
-4.605836e-01 -2.531367e-03 -7.151208e-06
-1.070588e+00 -1.835013e-03 -2.527908e-06
-1.946520e+00 -6.654529e-04 -1.148775e-06
-2.705836e+00 -1.204591e-03 -1.799766e-05
-1.351234e+00 -4.010851e-03 -4.439158e-06
8.727558e-01 1.465939e-03 -2.807207e-06
3.359369e+00 -1.072164e-04 -7.769596e-07
4.158003e+00 1.081807e-03 5.704032e-06
3.847286e+00 3.164037e-03 1.250216e-06
3.747508e+00 3.310782e-04 -4.570810e-06
3.336987e+00 -1.150557e-04 -3.885612e-07
2.756436e+00 1.746085e-03 9.366648e-07
1.722159e+00 6.293149e-04 -1.252327e-05
9.506708e-01 -1.745254e-03 -2.540652e-07
-3.300670e-01 1.813575e-03 -5.866284e-06
-1.944921e-01 -2.339552e-03 -5.260784e-06
-4.011011e-01 -8.120044e-04 -8.626997e-06
-5.698592e-01 -2.918965e-03 3.436826e-06
-1.254174e+00 -1.208309e-03 -2.490383e-06
-9.713387e-01 -3.121455e-03 -1.974949e-06
-7.755205e-01 -1.902852e-03 3.460023e-06
-8.777488e-01 -3.875605e-05 5.023617e-06
-1.196469e+00 -3.718215e-04 -6.194790e-06
-9.188396e-01 -3.467047e-03 -7.781521e-06
-8.731421e-01 -1.250959e-03 -1.488087e-06
-7.713070e-01 -1.610911e-03 -1.377544e-07
-7.462261e-01 -2.549613e-03 3.210423e-06
-9.718690e-01 -1.062548e-03 2.452227e-06
-9.906448e-01 -9.952653e-04 -4.659378e-06
-8.762014e-01 -1.883669e-03 -1.052462e-05
-7.848197e-01 -1.500434e-03 -2.326331e-06
-8.573091e-01 9.120625e-06 -2.049076e-07
-6.779033e-01 -5.031994e-04 5.157047e-06
-7.838076e-01 1.392603e-03 9.804136e-06
-1.041271e+00 2.990100e-03 1.104368e-05
-1.194716e+00 2.704429e-03 1.003858e-07
-7.120490e-01 1.052921e-03 1.447814e-05
-1.067448e+00 4.906233e-03 2.297451e-05
-1.139509e+00 2.941055e-03 -1.368006e-06
-3.936432e-01 -2.540179e-03 -2.390580e-06
-6.808669e-01 1.463509e-03 -1.712186e-06
-6.643707e-01 -4.484239e-04 2.910961e-06
-6.023628e-01 -1.296461e-04 1.088381e-06
-6.979921e-01 1.824549e-03 1.156476e-05
-8.321705e-01 3.385034e-03 1.051094e-05
-4.793004e-01 2.914108e-04 8.434261e-07
-3.383926e-01 -1.322852e-03 8.729880e-06
-7.969293e-01 1.539946e-03 -1.773977e-06
-2.631254e-01 -3.621467e-03 -4.926064e-06
-2.460675e-01 -2.416928e-03 -4.513858e-06
-3.748856e-01 -7.283564e-04 -6.176710e-06
-2.133182e-01 -1.095249e-03 -1.392904e-06
-3.146405e-01 4.016093e-04 1.633661e-06
-5.418077e-01 9.119927e-04 -5.713539e-06
-3.330917e-01 1.774509e-04 -6.085540e-07
-4.793764e-01 2.189258e-03 6.366105e-06
-6.503717e-01 1.340622e-03 1.393490e-06
-7.625885e-01 2.519019e-03 2.094642e-06
-6.183935e-01 2.383558e-03 -9.919031e-07
-3.506458e-01 6.929999e-04 5.994311e-06
-6.853666e-01 3.868883e-03 2.006953e-06
-2.657840e-01 6.651853e-04 9.093246e-06
-5.239742e-01 1.500241e-03 -4.077475e-06
-3.006194e-01 -5.962332e-04 -1.000288e-06
-4.551073e-01 1.365341e-03 -3.716302e-06
-3.604122e-01 -7.479699e-04 5.078887e-07
-4.586547e-01 1.363968e-03 3.530956e-06
-2.621918e-01 6.777870e-04 3.930833e-06
-3.621688e-01 9.887474e-04 3.588376e-06
-5.881564e-01 2.869643e-03 -7.621728e-06
-3.064996e-01 1.266018e-03 8.143054e-08
-3.267723e-01 1.980761e-03 -7.334822e-06
1.398822e-01 -1.128543e-03 -1.806676e-06
2.206961e-01 6.003254e-04 1.023580e-05
-1.205973e-01 2.220265e-03 6.410999e-06
2.300943e-01 -2.015005e-03 3.279132e-07
8.971053e-02 -5.533320e-06 -3.453737e-06
1.534464e-01 5.797194e-05 -2.955212e-06
1.395194e-01 8.089197e-04 3.375511e-06
5.840168e-02 3.866099e-03 1.138133e-05
9.749704e-02 4.582090e-03 1.178475e-05
2.954567e-01 4.211318e-03 1.128076e-05
3.804303e-01 4.258760e-03 4.844748e-06
5.064315e-01 3.240547e-03 4.392498e-06
5.346187e-01 4.004580e-03 3.461178e-06
8.514022e-01 3.451472e-03 1.122720e-05
7.809830e-01 4.492610e-03 1.744474e-05
4.690753e-01 6.043176e-03 1.361468e-06
7.287828e-01 2.653556e-03 1.373562e-06
6.608974e-01 3.699954e-03 -3.719719e-07
8.496337e-01 2.665625e-03 -3.422373e-06
8.841117e-01 2.166792e-03 -5.814732e-06
7.638664e-01 3.573249e-03 1.046834e-06
8.424828e-01 4.195886e-03 1.217665e-05
6.575666e-01 4.383141e-03 -5.454815e-07
9.873240e-01 7.122209e-04 -5.971220e-06
1.096653e+00 1.790534e-03 2.317127e-06
8.925039e-01 2.526127e-03 -2.229870e-06
8.920837e-01 -7.050365e-04 -4.767895e-06
9.480823e-01 -2.167781e-04 2.092324e-06
8.378459e-01 1.750222e-03 2.524686e-06
8.166829e-01 4.250730e-04 -9.847450e-06
1.004714e+00 -1.686921e-03 -7.255107e-06
6.739266e-01 1.310531e-03 -2.350585e-06
5.485756e-01 9.913541e-04 3.670078e-06
3.404639e-01 1.530928e-03 -4.107490e-06
5.129597e-01 -4.137822e-04 -5.680708e-06
3.571660e-01 1.505900e-03 -9.859185e-07
5.874028e-01 2.406521e-04 6.130974e-06
6.433751e-01 -6.610305e-04 6.490340e-06
4.783178e-01 5.929855e-04 9.962634e-06
3.275013e-01 1.219524e-03 3.992771e-06
4.713843e-01 -8.569616e-04 2.668260e-06
2.570922e-01 1.014578e-03 3.383176e-06
3.271433e-02 1.810529e-03 1.518816e-06
2.564582e-01 -1.574581e-04 9.037592e-06
-2.234572e-01 3.135720e-03 1.093761e-05
-6.056455e-02 3.406454e-03 1.497928e-05
-1.024938e-01 2.977555e-03 -4.921601e-06
1.379794e-01 -9.878375e-04 -9.595373e-06
-1.012371e-01 3.814229e-04 -8.665032e-06
-5.188745e-02 -1.137668e-03 -1.411101e-05
2.013205e-01 -3.455611e-03 -5.632767e-06
6.191897e-03 6.741826e-04 3.427097e-06
1.470146e-01 -2.139017e-04 1.522646e-06
3.167595e-01 -2.598747e-03 4.986882e-07
-3.723924e-02 7.607099e-05 -8.236145e-06
1.586323e-01 -7.089591e-04 6.144846e-06
-2.963286e-01 2.341551e-03 1.479569e-06
-1.680006e-01 4.516397e-04 -6.744066e-06
-2.031534e-02 1.487320e-03 7.719685e-07
-3.430891e-01 3.806001e-03 6.526970e-08
-1.922482e-01 1.267595e-03 -6.498870e-06
-2.339557e-01 1.631479e-03 4.804735e-06
-4.507904e-01 3.846852e-03 1.082339e-05
-2.082809e-01 1.475821e-03 1.043881e-07
6.544426e-02 4.709963e-04 6.573621e-06
-1.630664e-01 3.225270e-03 1.557108e-05
-7.783413e-02 1.463262e-03 1.238630e-05
-1.121485e-01 1.379651e-03 1.091264e-05
-2.883339e-01 3.390396e-03 1.230773e-05
-1.884884e-01 2.387662e-03 1.022235e-06
-1.984877e-01 6.266832e-04 -1.371002e-06
-2.391778e-01 1.090449e-03 5.200353e-06
-1.451998e-01 8.474478e-04 7.048922e-06
1.850159e-02 -1.789340e-04 4.518125e-06
1.436227e-02 2.888301e-04 7.524655e-06
-1.626842e-01 2.285689e-03 5.339686e-06
-1.724011e-01 9.379281e-04 -4.872993e-06
-2.338232e-02 -5.600682e-04 -4.864775e-06
-1.136350e-01 1.445535e-03 -1.628948e-06
1.873786e-02 2.958798e-04 7.853234e-06
-6.878831e-02 6.228114e-04 5.642328e-06
-2.730083e-01 1.295564e-03 -1.382291e-06
-2.998756e-01 8.351934e-04 -5.462209e-06
-2.036020e-01 8.006779e-04 -6.138171e-06
-3.672866e-01 6.181374e-04 -1.239396e-05
-2.600231e-01 4.395237e-04 -6.243412e-06
-1.479674e-01 1.262018e-03 -5.436260e-07
-1.751818e-01 1.363127e-03 4.495254e-06
-4.050755e-01 3.620226e-03 5.876839e-06
-3.655302e-01 2.892851e-03 1.841642e-06
-2.267550e-01 1.447409e-04 1.701282e-06
-3.960185e-01 1.344239e-03 -3.863428e-06
-8.122878e-02 -3.639991e-04 6.554132e-06
6.603048e-03 -5.890375e-05 1.093585e-05
-1.604621e-01 7.904840e-04 -1.212527e-06
3.832933e-02 -1.998330e-03 -1.840948e-06
-2.525552e-01 -5.858374e-04 -1.350233e-05
-1.156391e-01 -2.451940e-03 -3.095081e-06
-4.928108e-01 1.653712e-03 -7.520947e-06
-8.464458e-02 -1.315403e-03 -6.875220e-06
-5.645265e-02 -1.067508e-03 -3.086254e-06
-1.652212e-01 3.998059e-04 -2.018178e-06
-8.717134e-02 -1.426794e-03 -9.888796e-06
1.711891e-01 -2.816226e-03 1.307084e-06
-2.617411e-01 1.103960e-03 -1.481378e-05
3.828680e-01 -4.222707e-03 -4.218429e-06
-3.102739e-01 1.683441e-03 3.714071e-06
-3.542584e-01 3.844867e-04 -1.337305e-06
-2.950949e-01 -6.731673e-04 -9.544905e-06
-1.361869e-01 -2.354204e-04 -3.585403e-06
-1.962127e-01 4.375660e-04 -4.301889e-06
-2.324016e-01 1.007974e-03 -9.694738e-07
-4.303391e-01 3.057428e-03 4.221351e-06
-3.611879e-01 5.137009e-04 -2.945496e-06
-2.978786e-01 -5.459419e-04 -1.389214e-05
-1.581895e-01 -1.104376e-03 -9.784110e-06
-1.228900e-01 -1.018758e-03 -2.147654e-06
-2.793426e-01 -8.613579e-04 -1.299886e-06
-2.386952e-01 -1.105204e-03 -6.839812e-06
-1.015136e-01 -2.220855e-03 -6.956335e-06
-2.340363e-01 -1.634830e-03 -1.264033e-05
7.692514e-02 -4.076692e-03 -2.654737e-06
5.821131e-02 -1.561278e-03 1.124952e-05
-1.673321e-01 -6.933991e-04 3.926162e-06
1.283974e-01 -3.926448e-03 4.876129e-06
-3.322156e-01 -5.995408e-04 -8.171223e-06
-5.661515e-02 -3.867175e-03 -9.942676e-06
2.540348e-01 -5.046788e-03 -1.727876e-06
1.067341e-01 -3.237566e-03 -9.359392e-07
3.867604e-01 -4.996996e-03 -2.762113e-06
3.023633e-01 -4.645962e-03 -3.017069e-06
1.180640e-01 -5.127649e-03 -1.923345e-05
4.400515e-01 -7.659279e-03 -1.366752e-05
1.966973e-01 -3.142285e-03 -2.984141e-06
2.232568e-01 -3.420569e-03 -6.580455e-06
2.893105e-01 -4.302225e-03 6.462724e-07
-9.660111e-02 -1.757630e-04 5.063057e-06
2.089588e-01 -3.081481e-03 -1.016315e-06
1.405026e-01 -3.246432e-03 -4.210347e-06
-9.424347e-02 -5.489319e-04 -6.522727e-06
2.324520e-01 -4.045943e-03 -1.386913e-07
-8.403984e-02 -1.850982e-03 5.751910e-06
-8.138436e-02 -9.371046e-04 1.058663e-05
8.664399e-02 -2.053231e-03 1.226386e-05
-1.130734e-01 -2.379771e-03 -1.771035e-06
-3.529659e-02 -5.995029e-03 -1.229728e-05
-1.585854e-01 -5.105766e-03 2.660680e-06
-4.827120e-01 -1.651397e-03 2.390552e-06
-2.768895e-01 -4.868106e-03 5.077834e-06
-5.803448e-01 -1.508922e-03 6.179373e-06
-5.891956e-01 -3.316182e-03 9.267436e-07
-2.855481e-01 -6.246941e-03 4.300928e-06
-5.655288e-01 -2.527725e-03 5.570570e-06
-4.905505e-01 -4.129501e-03 3.273116e-06
-6.263696e-01 -4.036246e-03 -3.227794e-06
-6.399894e-01 -3.575167e-03 -1.356778e-05
-2.974077e-01 -4.258498e-03 -5.456743e-06
-3.795331e-01 -2.261569e-03 -9.610841e-06
9.252234e-02 -4.175215e-03 -5.761039e-07
9.115512e-02 -2.271709e-04 4.934683e-06
4.611005e-02 8.522332e-04 -1.607500e-06
3.825172e-01 -8.489274e-04 -3.785926e-06
5.650630e-01 5.360368e-04 5.664597e-06
4.708358e-01 7.894089e-04 -5.942283e-06
9.192683e-01 -3.628264e-03 -8.035985e-06
8.149368e-01 -9.906336e-06 4.885513e-06
6.493345e-01 2.198016e-03 4.240740e-06
8.647339e-01 -1.135298e-03 4.003416e-07
6.196491e-01 4.167646e-04 5.492355e-06
5.005458e-01 2.546034e-03 7.211183e-06
7.815696e-01 1.178703e-03 8.605108e-06
6.167857e-01 2.180278e-03 3.899674e-06
9.103998e-01 6.283472e-04 8.586773e-06
5.147072e-01 3.308584e-03 1.154016e-05
3.940022e-01 2.287532e-03 -2.598513e-06
5.434503e-01 -7.130025e-04 -6.906738e-06
1.988281e-01 1.380809e-03 -6.415128e-06
4.315250e-01 -3.833088e-04 1.363277e-06
4.577332e-01 -1.157838e-03 -1.181931e-05
5.581585e-01 -1.715943e-03 -1.206959e-05
5.880716e-01 -1.766975e-04 1.685157e-06
2.962421e-01 3.160618e-04 -5.128343e-06
6.959729e-02 -1.796174e-03 -5.763433e-06
-8.164953e-01 2.630490e-03 -2.125898e-06
-7.712405e-01 1.933094e-03 9.201945e-06
-8.061343e-01 2.818429e-03 5.622998e-06
-1.060018e+00 2.632789e-03 5.174027e-06
-1.767434e+00 2.824768e-03 4.110675e-06
-2.472788e+00 1.340040e-03 -7.453359e-06
-2.626923e+00 -8.450226e-04 -1.745296e-05
-6.107906e-01 -7.483732e-04 -1.512807e-05
2.332285e+00 2.485363e-04 6.498715e-07
3.697402e+00 2.496729e-03 2.561690e-07
3.815919e+00 2.691472e-03 5.199971e-06
3.904165e+00 3.828486e-03 1.530389e-05
3.370063e+00 4.501974e-03 8.942890e-06
3.058819e+00 2.336501e-03 4.791563e-06
2.208087e+00 4.027377e-03 1.566073e-06
1.339824e+00 1.649672e-03 4.798840e-07
3.352321e-01 1.173069e-03 2.979827e-06
-2.673335e-01 9.889230e-04 9.901946e-07
-6.364911e-02 -1.236948e-03 -6.586100e-06
-4.220948e-01 -1.399759e-04 -8.594760e-06
-9.899467e-01 1.163294e-03 3.553025e-06
-1.406296e+00 2.827202e-03 -7.286007e-06
-7.623918e-01 -3.025354e-04 -1.269117e-06
-1.022561e+00 1.878128e-03 -1.031791e-05
-7.028426e-01 -2.005004e-03 -4.076479e-06
-1.082609e+00 3.192310e-05 -3.051052e-07
-9.251712e-01 -9.984079e-05 7.023474e-07
-4.918308e-01 -2.317657e-03 -3.780652e-06
-6.001524e-01 -3.218243e-03 -6.676881e-06
-6.843447e-01 -3.387382e-03 -6.244483e-07
-7.305165e-01 -1.764641e-03 5.592475e-06
-6.599546e-01 -7.465220e-04 -1.353491e-06
-7.358089e-01 -1.977817e-03 -7.778761e-06
-1.092463e+00 4.108589e-04 -3.180644e-06
-1.158352e+00 2.499725e-03 1.873974e-06
-9.597352e-01 2.951332e-03 1.661126e-05
-1.172174e+00 5.501023e-03 1.443015e-05
-1.077300e+00 3.014103e-03 7.320481e-06
-9.006006e-01 1.312161e-03 1.040763e-05
-9.102858e-01 2.157247e-03 4.961494e-06
-7.297979e-01 2.374102e-04 3.870806e-06
-6.812734e-01 -1.448955e-04 -7.052640e-07
-3.165944e-01 -2.959885e-03 5.292936e-06
-5.631819e-01 6.633101e-04 2.883214e-06
-3.753644e-01 -1.946689e-05 8.618294e-06
-3.842515e-01 7.544781e-04 7.996578e-06
-4.600223e-01 5.938281e-04 3.334325e-06
-6.162954e-01 4.791191e-04 2.928014e-07
-3.875144e-01 1.711979e-05 1.200526e-05
-7.392255e-01 1.701986e-03 4.774698e-06
-4.183938e-01 -1.491459e-03 -4.195245e-06
-2.332173e-01 -2.279181e-03 8.672269e-08
-5.648102e-01 -1.241406e-03 -1.221843e-05
-1.934464e-01 -3.618741e-03 -9.177951e-06
-2.805505e-01 -3.355697e-04 4.427361e-06
-6.051753e-01 1.241510e-03 -4.388306e-06
-3.996856e-01 -1.107927e-03 1.314434e-06
-9.139944e-01 4.573751e-03 -6.209036e-06
-5.430994e-01 1.074980e-03 -9.598664e-06
-4.468289e-01 9.950408e-04 -5.664880e-06
-5.064952e-01 2.337036e-03 -5.953975e-07
-5.670596e-01 2.185878e-03 9.468452e-06
-8.275578e-01 4.654492e-03 5.833947e-06
-6.094668e-01 2.240454e-03 2.513962e-06
-5.179247e-01 1.404289e-03 8.183058e-06
-6.399631e-01 2.622976e-03 9.291450e-06
-4.624671e-01 5.774373e-04 -3.793329e-06
-4.490054e-01 -1.057672e-03 -1.061047e-05
-4.596709e-01 -9.303215e-04 -7.745978e-06
-4.490449e-01 -6.545302e-04 -7.470846e-06
-1.953394e-01 -8.515409e-04 2.922907e-06
-4.794587e-01 2.768552e-03 4.343804e-06
-2.740227e-01 1.049732e-03 3.190064e-06
-2.613017e-01 4.215911e-04 3.457109e-06
-5.768877e-02 6.385908e-05 1.816739e-06
1.042326e-01 -7.106225e-04 1.816938e-06
1.546687e-01 -1.205399e-03 -2.638634e-06
3.296244e-01 -2.621463e-03 1.156550e-07
2.220380e-01 -1.123914e-03 1.845318e-06
1.347016e-02 9.770740e-05 -2.485803e-06
1.149698e-01 -7.626724e-04 -8.494552e-06
2.230390e-02 1.751247e-03 -3.835003e-07
-7.915459e-03 3.093615e-03 -2.415289e-06
2.481613e-01 1.506486e-03 5.839206e-06
-2.118838e-01 6.709007e-03 -1.475879e-06
4.042223e-01 2.570462e-03 4.573244e-07
4.671047e-01 3.196332e-03 3.193255e-06
6.051550e-01 3.112001e-03 6.359021e-06
7.299371e-01 2.953631e-03 1.649322e-05
6.573289e-01 3.972844e-03 1.016315e-05
9.057636e-01 1.987226e-04 -3.815035e-07
9.205203e-01 2.793405e-04 -2.196660e-06
8.412737e-01 1.637315e-03 1.015359e-05
7.235271e-01 2.693040e-03 7.685192e-06
7.799370e-01 1.789030e-03 2.808401e-07
7.598771e-01 2.782346e-03 2.733667e-06
7.797237e-01 2.845498e-03 2.832633e-06
6.543162e-01 2.773399e-03 2.124363e-06
6.872366e-01 3.289649e-03 -5.673982e-07
1.073864e+00 5.855965e-05 -2.667680e-06
1.195964e+00 -8.796884e-04 2.472525e-06
1.057682e+00 -2.255055e-04 6.516547e-06
9.976178e-01 -1.648097e-03 -2.476724e-06
1.076472e+00 -3.101193e-03 8.272342e-06
5.884738e-01 8.381091e-04 5.042610e-06
9.037934e-01 -1.260224e-03 1.002649e-05
4.912577e-01 3.134984e-03 1.035227e-05
1.133968e-01 3.894880e-03 -5.912015e-06
4.536793e-01 -5.936384e-04 -4.469482e-06
-1.127835e-01 3.207446e-03 -1.189512e-05
1.739235e-01 5.058901e-04 -1.416082e-07
6.320322e-03 3.146064e-03 6.005133e-06
1.909452e-01 2.582823e-03 8.877631e-06
4.524674e-01 8.416232e-05 1.284217e-05
2.947949e-02 2.375345e-03 -1.694862e-06
3.223402e-01 -7.691336e-04 -3.155200e-06
1.510261e-01 1.275954e-03 4.330847e-06
6.309196e-02 1.388810e-03 -5.608867e-06
3.707897e-01 -1.862036e-03 -8.347095e-07
-1.651667e-01 2.572034e-03 2.664513e-06
-1.050579e-01 1.764998e-03 1.621428e-06
-1.297691e-02 2.911982e-04 -3.145241e-06
-1.164496e-02 3.223003e-06 -4.714489e-06
2.072427e-01 -8.769517e-04 -1.821169e-06
2.695495e-01 2.236416e-04 1.063473e-05
-1.215845e-01 2.762226e-03 8.699970e-06
-4.625039e-02 -8.803980e-04 -3.779628e-06
6.493343e-02 -2.755034e-03 -5.911709e-06
-1.273852e-01 -1.002633e-03 -6.026605e-06
-1.614021e-01 -1.528175e-03 -1.427361e-05
1.758324e-01 -2.735473e-03 -3.880773e-06
-1.333594e-01 1.626128e-03 3.986529e-06
-1.699162e-01 1.352899e-03 -4.199671e-06
-7.720211e-02 -2.784378e-04 -3.859524e-06
-3.774460e-01 3.439552e-03 5.085238e-06
-3.277913e-01 3.143176e-03 -1.330388e-06
-3.008407e-01 9.102324e-04 -1.035110e-05
-2.987669e-01 4.634871e-04 -8.075929e-06
-3.257521e-01 2.052065e-03 -3.153446e-06
-1.675726e-01 1.203800e-03 -4.855502e-07
1.233057e-02 -4.989991e-04 4.983099e-06
-2.493662e-01 2.249162e-03 7.221219e-07
-1.025604e-01 9.394469e-04 -4.048899e-06
-1.008474e-03 -3.058934e-04 -6.439685e-06
-9.140949e-02 7.714362e-04 -1.030362e-06
-1.460621e-01 1.702486e-03 9.907382e-06
-1.200748e-01 1.966122e-03 2.475733e-06
-1.372949e-01 5.767343e-04 -9.513939e-06
6.015591e-02 -8.126024e-04 -5.522225e-07
-8.705398e-02 4.135431e-05 -6.754226e-06
3.075792e-01 -4.137381e-03 -4.843273e-06
-1.530522e-02 -1.652157e-03 -7.418533e-06
-6.451446e-02 -2.598781e-03 -7.236016e-06
8.754799e-02 -4.778720e-03 -7.147447e-06
1.267919e-01 -4.037490e-03 -1.057398e-05
3.547140e-01 -3.991022e-03 3.853431e-06
-1.219960e-01 1.321345e-04 -7.528000e-07
1.342925e-01 -1.877069e-03 -1.801717e-06
1.460653e-02 -9.544291e-04 -1.635453e-06
-1.510086e-01 -2.521570e-04 -2.546867e-07
9.061451e-02 -2.437280e-03 1.729789e-06
1.215940e-01 -1.889057e-03 -1.698510e-06
2.556868e-01 -2.752438e-03 4.128280e-06
1.153737e-01 -1.858853e-03 2.021125e-06
