8.355341000000000612e-05
7.371721000000000024e-05
6.406030000000000058e-05
5.087169000000000218e-05
5.078540999999999730e-05
6.061137999999999904e-05
4.666295000000000019e-05
4.107170000000000184e-05
2.818518000000000108e-05
3.383312000000000193e-06
4.283191000000000307e-06
2.803859999999999952e-05
3.072920999999999780e-05
2.048437000000000120e-05
4.958501000000000283e-06
1.732793999999999998e-05
1.222848000000000019e-05
1.361059999999999976e-05
-7.779035999999999698e-06
-9.959391999999999665e-06
-5.015453000000000276e-06
-5.442761999999999805e-07
-1.119778000000000005e-05
-1.491404999999999953e-06
6.980120000000000011e-06
-7.165769000000000272e-06
-4.037766000000000026e-06
8.923547999999999617e-07
-1.153547999999999895e-06
-1.537208000000000004e-05
5.123914000000000151e-06
2.124635000000000030e-05
-1.599635000000000144e-05
-9.417641999999999303e-06
-1.361891000000000002e-05
3.197140999999999922e-07
-1.161080999999999972e-05
-2.173699000000000142e-05
-1.568609000000000146e-05
-2.381881999999999941e-06
-1.097519000000000054e-05
-5.233611000000000263e-06
-4.923952000000000151e-06
-1.662365999999999865e-05
-1.522216000000000030e-05
-6.561941999999999692e-06
-1.769974999999999939e-05
-4.741770999999999904e-06
-2.247244000000000129e-05
-2.350318000000000085e-05
-3.379849999999999836e-05
-3.088953999999999902e-05
-2.831479999999999867e-05
-2.274806000000000053e-05
-3.368214999999999735e-05
-2.221312000000000053e-05
-2.833732999999999928e-05
-2.751148000000000108e-05
-1.999196000000000162e-05
-1.892400000000000042e-05
-2.401886999999999929e-05
-4.348320999999999800e-05
-2.752394999999999928e-05
-2.196856999999999963e-05
-2.832520000000000114e-05
-1.443331999999999923e-05
-1.630186999999999847e-05
-2.106613000000000019e-05
-3.526255000000000004e-05
-4.052279999999999766e-05
-3.065316999999999776e-05
-3.696717999999999933e-05
-2.831468000000000044e-05
-2.613716999999999899e-05
-3.047218999999999869e-05
-3.555669999999999789e-05
-3.527569999999999838e-05
-2.820059000000000167e-05
-3.217839999999999671e-05
-3.333348000000000056e-05
-3.817311999999999680e-05
-3.101086000000000212e-05
-2.005374000000000021e-05
-3.312470999999999883e-05
-4.709123000000000280e-05
-4.833667999999999949e-05
-5.094341999999999886e-05
-3.497366999999999815e-05
-2.207337999999999973e-05
-1.410789000000000021e-05
-2.325046999999999832e-05
-2.139047999999999988e-05
-3.777551999999999912e-05
-4.473847000000000332e-05
-3.857183999999999830e-05
-2.361952000000000116e-05
-2.662952999999999845e-05
-2.701862000000000052e-05
-2.762656000000000134e-05
-2.264260999999999970e-05
-3.302103999999999717e-05
-3.215225999999999767e-05
-3.539336999999999686e-05
-3.502324000000000317e-05
-3.867218999999999811e-05
-3.041642000000000041e-05
-2.460955999999999956e-05
-2.547480999999999945e-05
-4.817506999999999681e-05
-5.775651000000000244e-05
-6.503287000000000336e-05
-6.647298999999999797e-05
-7.679335000000000566e-05
-6.178654000000000492e-05
-6.864384000000000447e-05
-8.189998999999999782e-05
-7.164802000000000388e-05
-6.759453000000000011e-05
-6.371899000000000367e-05
-6.132377999999999582e-05
-3.419049999999999732e-05
-2.588840000000000103e-05
-1.673519000000000130e-05
-5.800342000000000284e-07
6.417391000000000134e-06
1.762374999999999876e-05
2.584225000000000148e-05
3.710935999999999803e-05
5.468678999999999890e-05
6.453604999999999683e-05
6.865082000000000486e-05
5.535302999999999881e-05
4.433102000000000098e-05
4.275178999999999882e-05
4.424158999999999937e-05
5.163994000000000283e-05
4.108586999999999699e-05
4.322982999999999942e-05
5.875220000000000307e-05
4.781189000000000142e-05
2.642010000000000137e-05
2.549337000000000017e-05
2.622481000000000074e-05
2.698656000000000069e-05
2.498013000000000032e-05
2.482123000000000088e-05
-1.556569999999999905e-05
-7.171315999999999357e-05
-1.026458000000000058e-04
-1.004886999999999989e-04
-1.293762999999999966e-04
-2.059018999999999878e-04
-2.843710999999999852e-04
-3.046950000000000092e-04
-1.319830000000000135e-04
1.990461000000000118e-04
4.264173000000000009e-04
4.712893999999999807e-04
4.731566999999999891e-04
4.339861000000000088e-04
3.730874999999999816e-04
2.984997999999999775e-04
1.750230999999999879e-04
4.521768999999999837e-05
-2.163063000000000130e-05
-2.416154999999999909e-05
-4.585184999999999706e-05
-8.769733999999999407e-05
-1.046894000000000009e-04
-8.288908000000000430e-05
-6.864530999999999888e-05
-9.415440999999999492e-05
-1.059832000000000054e-04
-8.766944999999999458e-05
-7.035651999999999770e-05
-8.415329999999999946e-05
-7.504841000000000539e-05
-7.692896000000000554e-05
-6.595430000000000650e-05
-5.999257999999999745e-05
-7.744889000000000244e-05
-7.603911000000000253e-05
-5.897141999999999722e-05
-4.788951999999999749e-05
-5.239456999999999936e-05
-6.020935999999999709e-05
-4.144591999999999704e-05
-4.003642000000000317e-05
-4.143639000000000122e-05
-3.674340999999999859e-05
-4.508401999999999869e-05
-3.743479000000000213e-05
-3.816127000000000131e-05
-3.813061999999999848e-05
-3.702132999999999948e-05
-2.756988000000000038e-05
-3.444651999999999762e-05
-3.190011999999999774e-05
-3.098963000000000097e-05
-1.951788000000000023e-05
-1.416579000000000011e-05
-9.304757999999999522e-06
-3.180246000000000315e-05
-3.005456999999999980e-05
-2.328792999999999982e-05
-2.271698999999999881e-05
-2.558665000000000006e-05
-2.051793000000000093e-05
-1.668411999999999977e-05
-2.628420000000000154e-05
-2.245820999999999855e-05
-2.080495999999999875e-05
-2.663319000000000038e-05
-2.952014000000000160e-05
-3.964131999999999742e-05
-3.919541000000000154e-05
-2.092395000000000149e-05
-1.884772000000000053e-05
-1.678023000000000112e-05
-1.637650999999999883e-05
-6.261483999999999663e-06
-1.447928000000000073e-05
6.117468999999999865e-07
1.281747000000000012e-05
-4.871544000000000228e-06
-6.727725999999999637e-07
2.624996999999999899e-05
3.460984999999999864e-05
1.793459999999999935e-05
2.890140000000000081e-05
4.327529000000000152e-05
6.037864000000000100e-05
7.241341000000000097e-05
8.205805999999999680e-05
9.402038999999999785e-05
9.962245999999999417e-05
1.169313000000000031e-04
1.241210999999999931e-04
1.220338999999999972e-04
1.152786999999999979e-04
1.177283000000000024e-04
1.114636999999999947e-04
1.165392000000000039e-04
1.210028000000000064e-04
1.164270000000000018e-04
1.092123999999999981e-04
1.149558999999999949e-04
1.150298999999999945e-04
9.681792000000000154e-05
9.139721999999999430e-05
8.551981999999999531e-05
8.661493000000000523e-05
7.208848999999999867e-05
6.984750000000000507e-05
5.505961999999999852e-05
5.478571000000000032e-05
4.854404999999999815e-05
4.110284999999999899e-05
2.737107000000000084e-05
3.867101999999999757e-05
3.848552999999999810e-05
3.649114999999999705e-05
2.888586000000000129e-05
3.041159999999999865e-05
1.046807000000000022e-05
9.604256999999999972e-07
4.548061999999999926e-06
1.139331000000000053e-05
8.680002000000000382e-06
1.902809000000000055e-06
2.421578999999999876e-06
-9.197627999999999753e-06
-1.095390000000000027e-05
1.646916000000000081e-06
8.946644000000000395e-06
-2.535190000000000032e-06
-2.223628999999999933e-06
6.646403000000000306e-06
-1.861153999999999901e-05
-1.964000999999999901e-05
-4.742612999999999853e-06
-1.056378000000000070e-05
-1.187635999999999923e-05
-1.009873999999999981e-06
-2.078009000000000046e-05
-2.893303999999999836e-05
-1.755007999999999850e-05
-6.325994999999999730e-06
-1.229677000000000017e-05
-6.434636000000000339e-06
-5.685145999999999998e-06
-3.421489999999999915e-06
-1.303056999999999982e-05
-1.844936000000000050e-05
-1.985435000000000075e-05
-1.570547999999999926e-05
-7.788681999999999572e-06
-1.952019999999999989e-05
-1.663877999999999928e-05
-6.357890000000000295e-07
-1.357535999999999940e-05
-2.046869999999999937e-05
-2.988401999999999853e-05
-2.518040000000000035e-05
-1.603195999999999888e-05
-7.734782999999999362e-06
-3.133825000000000103e-05
-3.573537000000000138e-05
-3.729138999999999940e-05
-3.504061999999999927e-05
-2.482288000000000110e-05
-1.607026000000000155e-05
-3.990100999999999696e-05
-2.997443000000000094e-05
-3.824488000000000236e-05
-3.302965999999999709e-05
-2.270986999999999878e-05
-1.884928000000000124e-05
-2.199150999999999843e-05
-1.737581999999999858e-05
-2.863430999999999859e-05
-4.000335000000000045e-05
-3.806737999999999940e-05
-3.287364999999999992e-05
-2.390368000000000150e-05
-3.006664000000000052e-05
-2.848610000000000158e-05
-2.688007999999999896e-05
-2.480590999999999981e-05
-3.034500999999999900e-05
-3.147453000000000035e-05
-2.053615000000000158e-05
-2.264160000000000020e-05
-3.284372000000000002e-05
-1.745631000000000160e-05
-3.316542000000000069e-05
-3.582277000000000329e-05
-3.089516999999999985e-05
-2.674626999999999964e-05
-2.530020999999999946e-05
-3.747494999999999939e-05
-3.037394000000000010e-05
-3.053679000000000143e-05
-2.179516000000000157e-05
-2.485127999999999900e-05
-4.057437000000000028e-05
-4.240441999999999812e-05
-2.944134999999999892e-05
-1.627915999999999882e-05
-3.298789000000000240e-05
-3.274473000000000048e-05
-2.967899000000000093e-05
-3.410092999999999946e-05
-2.375954999999999853e-05
-2.417443999999999957e-05
-2.908375000000000085e-05
-2.926737999999999896e-05
-3.214723999999999886e-05
-3.287266999999999913e-05
-4.283448999999999720e-05
-4.830618000000000038e-05
-3.569376999999999826e-05
-5.165719000000000338e-05
-6.931612999999999393e-05
-6.913444999999999671e-05
-7.953311000000000668e-05
-7.020742000000000280e-05
-5.741165000000000114e-05
-5.115627000000000141e-05
-5.425485999999999845e-05
-5.115739999999999914e-05
-2.897280999999999883e-05
-2.583417999999999937e-05
-2.478070000000000145e-05
-1.048326999999999967e-05
-6.807148000000000068e-07
1.013450999999999998e-05
1.855364000000000080e-05
4.471076999999999680e-05
4.490831999999999967e-05
5.330962999999999734e-05
5.663556000000000092e-05
5.751690999999999884e-05
7.004893000000000155e-05
7.327021999999999658e-05
6.653543000000000207e-05
4.939759000000000218e-05
3.759926000000000159e-05
3.858331000000000109e-05
3.127428999999999902e-05
3.352253999999999906e-05
2.891048999999999973e-05
3.633641000000000063e-05
3.361541999999999807e-05
2.489763999999999969e-05
2.935012000000000013e-05
1.001222000000000017e-05
-3.368930000000000286e-05
-9.589069999999999994e-05
-8.426228000000000667e-05
-8.120203000000000154e-05
-1.427563999999999873e-04
-2.050931000000000032e-04
-2.783298000000000130e-04
-2.402388999999999946e-04
2.960363000000000103e-05
2.716980000000000133e-04
3.840172000000000203e-04
3.688389000000000034e-04
3.700684000000000091e-04
3.524142999999999980e-04
3.323558000000000003e-04
2.552643999999999747e-04
1.318652999999999926e-04
3.811674000000000328e-05
-1.028609000000000065e-05
-7.778346000000000557e-06
-6.011217000000000150e-05
-1.051154999999999933e-04
-1.098991000000000063e-04
-9.616324999999999786e-05
-8.864250000000000384e-05
-1.154622000000000005e-04
-1.245576999999999882e-04
-8.989513000000000137e-05
-8.223512999999999678e-05
-9.570225000000000346e-05
-1.091638999999999934e-04
-7.814072000000000357e-05
-7.549358000000000370e-05
-8.944276000000000082e-05
-8.937083999999999762e-05
-6.855816000000000091e-05
-6.507173999999999847e-05
-6.255083000000000637e-05
-6.375883999999999957e-05
-5.537486000000000128e-05
-5.772046000000000132e-05
-5.958569000000000040e-05
-4.854771999999999739e-05
-5.009372999999999989e-05
-5.357271999999999756e-05
-5.183652999999999953e-05
-4.063001999999999695e-05
-3.159363999999999792e-05
-2.777675999999999865e-05
-1.963917000000000123e-05
-1.985786999999999966e-05
-4.174165999999999771e-05
-3.703649000000000291e-05
-2.871933000000000003e-05
-2.877535999999999956e-05
-2.835365999999999985e-05
-1.991979000000000126e-05
-2.476827999999999997e-05
-2.036460000000000150e-05
-1.659696999999999841e-05
-1.711892999999999840e-05
-1.991981999999999997e-05
-2.195217000000000094e-05
-1.772545000000000153e-05
-2.766182000000000140e-05
-2.598784000000000155e-05
-1.696330000000000071e-05
-4.188332000000000132e-07
-8.298038999999999174e-06
-1.744149999999999894e-05
-1.741525999999999968e-05
-1.392438999999999934e-05
-1.183204000000000064e-05
-3.449647000000000211e-06
1.337941000000000003e-05
2.680974999999999857e-05
1.765642000000000060e-05
1.757220000000000093e-05
2.297009999999999883e-05
2.085954999999999919e-05
2.253684000000000020e-05
3.504522000000000258e-05
4.963515999999999930e-05
5.901506000000000075e-05
5.180088999999999999e-05
5.481682000000000145e-05
6.751559999999999441e-05
9.449900000000000444e-05
1.151437999999999935e-04
1.251188999999999990e-04
1.184124000000000049e-04
1.055725999999999995e-04
1.145585000000000044e-04
1.166074999999999978e-04
1.126163999999999947e-04
1.149948000000000056e-04
1.242229999999999929e-04
1.189965999999999984e-04
1.125596999999999991e-04
1.028418000000000019e-04
1.017201999999999955e-04
9.872250000000000220e-05
9.444632000000000548e-05
8.551729999999999521e-05
8.210275000000000602e-05
8.464778000000000493e-05
8.093879000000000438e-05
6.408831999999999561e-05
6.270424000000000462e-05
5.673068000000000078e-05
5.446745000000000314e-05
5.154917000000000234e-05
4.918269999999999923e-05
4.141543999999999933e-05
4.110168999999999916e-05
3.125597999999999886e-05
3.311419000000000152e-05
3.688829999999999713e-05
4.247644000000000154e-05
2.886164000000000104e-05
2.220122999999999885e-05
2.186297999999999917e-05
1.405908999999999993e-05
2.091644999999999860e-05
9.424574000000000070e-06
3.917496000000000075e-06
8.748253999999999954e-07
1.487368999999999930e-06
7.763516999999999280e-06
5.960943000000000095e-06
-1.639624999999999993e-06
-1.070097999999999999e-05
5.429234000000000135e-06
1.437282000000000040e-05
1.751698000000000046e-05
2.115421999999999954e-05
4.442687000000000109e-06
7.377309000000000114e-06
-9.514974000000000085e-06
-5.656681000000000094e-06
6.167764000000000330e-06
1.506798999999999971e-05
6.817266000000000265e-06
-4.326154999999999579e-06
-4.807369000000000118e-06
-9.655159999999999220e-06
-4.250800000000000027e-06
-1.938730999999999971e-06
7.119319000000000065e-06
3.061144000000000163e-06
-8.205421000000000191e-06
-1.378693000000000049e-05
-2.260340000000000114e-05
-2.328830999999999930e-05
-1.988695000000000108e-05
-1.495777999999999962e-05
-5.078008999999999953e-06
-1.891496999999999891e-05
-2.285233000000000013e-05
-2.054223000000000000e-05
-3.075483000000000197e-06
-1.186495000000000064e-05
-2.757732999999999978e-05
-4.064020999999999828e-05
-2.674364999999999932e-05
-1.652493000000000036e-05
-2.904929999999999985e-05
-2.545339999999999926e-05
-2.209573000000000130e-05
-2.350057000000000122e-05
-2.285217999999999980e-05
-2.493520000000000141e-05
-3.731934000000000309e-05
-3.991397000000000234e-05
-3.565500999999999729e-05
-3.136217000000000063e-05
-2.261993999999999946e-05
-3.273985999999999861e-05
-3.013628000000000007e-05
-2.564886999999999893e-05
-2.645623000000000131e-05
-4.006429000000000126e-05
-4.203668000000000221e-05
-4.186311000000000313e-05
-4.729430999999999951e-05
-4.506010999999999979e-05
-3.947595999999999668e-05
-2.648537000000000016e-05
-2.479547000000000131e-05
-4.530891999999999716e-05
-4.533841000000000016e-05
-4.205846000000000118e-05
-3.178340999999999865e-05
-2.933096999999999880e-05
-2.792253999999999846e-05
-2.135045999999999887e-05
-3.307611000000000069e-05
-3.172956999999999986e-05
-3.387174999999999973e-05
-2.080651999999999946e-05
-3.114824999999999777e-05
-3.148468999999999958e-05
-2.161393999999999927e-05
-2.957545000000000158e-05
-3.354257999999999827e-05
-3.257280000000000093e-05
-2.264238000000000055e-05
-2.950493000000000145e-05
-4.338549999999999991e-05
-3.630615999999999867e-05
-4.091360000000000076e-05
-3.600837999999999760e-05
-2.557058000000000074e-05
-5.872953999999999675e-05
-6.060798999999999907e-05
-9.389182000000000257e-05
-8.836394000000000561e-05
-7.127527000000000309e-05
-6.659049000000000489e-05
-6.887615000000000631e-05
-7.604097999999999782e-05
-7.549757999999999892e-05
-7.826660000000000041e-05
-7.653794000000000060e-05
-5.458290000000000217e-05
-3.905087000000000038e-05
-4.228589000000000046e-05
-2.246876999999999867e-05
-1.008344000000000014e-05
1.160995000000000054e-06
1.810302000000000070e-05
3.477365999999999937e-05
3.325746000000000193e-05
5.211266999999999787e-05
6.415402999999999807e-05
6.336965000000000067e-05
6.205241999999999702e-05
4.392251999999999973e-05
3.976134999999999837e-05
4.557364000000000299e-05
3.852417999999999815e-05
4.167823999999999959e-05
2.888625000000000147e-05
3.449402000000000013e-05
2.175293999999999912e-05
1.153829999999999929e-05
2.852392000000000116e-05
2.699122999999999873e-05
1.381558999999999964e-05
1.060117999999999969e-05
1.855370000000000076e-06
-4.907706000000000205e-05
-9.704293999999999486e-05
-9.575310999999999708e-05
-9.957888999999999554e-05
-1.460897999999999917e-04
-2.136484000000000126e-04
-2.869079000000000182e-04
-2.869669000000000256e-04
-6.294749999999999998e-05
2.375012000000000022e-04
4.047667999999999817e-04
4.419385999999999974e-04
4.534636000000000200e-04
4.115144000000000050e-04
3.428991999999999847e-04
2.478353999999999887e-04
1.242593999999999914e-04
9.870884999999999599e-06
-3.050255000000000156e-05
-2.935288000000000008e-05
-4.994182999999999885e-05
-1.070202999999999958e-04
-1.245030000000000106e-04
-9.865905999999999591e-05
-9.077479999999999696e-05
-1.164921000000000023e-04
-1.182295000000000036e-04
-9.833144999999999516e-05
-8.319393999999999921e-05
-8.896818000000000510e-05
-9.245334000000000072e-05
-8.329517999999999352e-05
-7.608012999999999896e-05
-8.522130999999999739e-05
-9.848716000000000523e-05
-8.160626999999999616e-05
-6.365469000000000498e-05
-6.817855999999999526e-05
-6.180605000000000094e-05
-6.410394000000000411e-05
-5.777397999999999806e-05
-5.600782999999999803e-05
-5.546456000000000145e-05
-5.468766999999999948e-05
-5.196804999999999789e-05
-5.363640000000000031e-05
-4.204628999999999685e-05
-3.112975999999999856e-05
-3.662419000000000010e-05
-4.046627000000000042e-05
-3.510017999999999840e-05
-2.384128000000000020e-05
-3.431945999999999955e-05
-2.325608999999999844e-05
-2.033476999999999843e-05
-1.957847000000000027e-05
-3.114727999999999768e-05
-1.632737000000000018e-05
-1.674392999999999945e-05
-1.762122999999999866e-05
-2.684326000000000157e-05
-2.888583999999999989e-05
-2.153082999999999931e-05
-1.374198000000000018e-05
-3.414641000000000296e-05
-3.026865000000000030e-05
-2.760235999999999910e-05
-2.778121000000000163e-05
-2.296616000000000103e-05
-2.445000000000000138e-05
-2.401967000000000105e-05
-8.767436000000000264e-06
-6.286768999999999879e-06
4.441921999999999956e-06
1.187105999999999947e-05
1.976035999999999947e-06
3.884035000000000329e-06
-2.810973999999999982e-06
1.196884000000000076e-05
1.253627000000000017e-05
2.269092999999999859e-05
3.951245000000000148e-05
3.963381000000000060e-05
4.811888000000000303e-05
6.888657000000000341e-05
7.130531000000000391e-05
8.903764999999999954e-05
1.048896999999999997e-04
1.039153999999999978e-04
1.176526999999999993e-04
1.277712000000000075e-04
1.322895999999999946e-04
1.423457999999999950e-04
1.368968999999999937e-04
1.365158000000000051e-04
1.296972000000000023e-04
1.244496999999999954e-04
1.301399999999999974e-04
1.217422999999999948e-04
1.103421999999999953e-04
1.307470999999999937e-04
1.192545999999999949e-04
1.137638999999999968e-04
1.039376999999999993e-04
1.014014000000000012e-04
1.020212000000000050e-04
8.231140999999999328e-05
7.866852999999999606e-05
7.404186999999999791e-05
8.867724999999999534e-05
7.879613000000000480e-05
7.365596999999999878e-05
5.434782000000000306e-05
4.707164000000000118e-05
4.968994000000000286e-05
4.331247000000000038e-05
3.032687000000000056e-05
2.705928999999999957e-05
3.173611999999999728e-05
4.579189999999999774e-05
2.926800999999999898e-05
2.707172999999999906e-05
1.454943999999999939e-05
7.045047999999999942e-06
2.159100000000000046e-05
3.011313000000000013e-06
-1.511595999999999952e-06
4.767021000000000213e-06
1.313602999999999966e-05
4.269745999999999963e-06
-5.122294999999999718e-06
-5.096072000000000291e-06
5.390330999999999671e-06
1.751170999999999899e-06
8.539692000000000365e-06
1.725614999999999910e-05
-8.162840000000000268e-06
-4.332499999999999600e-06
-1.301944999999999950e-06
-4.372391000000000232e-06
1.788727000000000027e-06
-1.305541999999999926e-06
-6.930706000000000148e-06
-4.263827000000000266e-06
-9.046082000000000442e-06
1.171636000000000076e-06
1.143874999999999954e-05
-3.209380000000000009e-06
-8.392220000000000433e-06
-5.452296999999999579e-06
-6.740608999999999925e-06
-7.792935999999999684e-06
3.698887999999999736e-07
-6.649510999999999700e-06
-4.977171999999999617e-06
-2.559512000000000135e-06
-2.393642000000000146e-05
-1.528429999999999866e-05
-1.877102999999999907e-05
-6.715978000000000397e-06
-2.531531999999999939e-05
-2.247490000000000059e-05
-1.635801999999999962e-05
-1.569678000000000051e-05
-1.252238999999999989e-05
-1.052934999999999940e-05
-3.230713999999999711e-05
-3.381477999999999882e-05
-1.970538999999999871e-05
-1.049248000000000021e-05
-5.979259000000000006e-06
-1.893288000000000159e-05
-2.495050999999999839e-05
-3.323332000000000049e-05
-2.940332999999999890e-05
-2.025718999999999908e-05
-1.990957999999999853e-05
-3.240693999999999910e-05
-3.153237000000000113e-05
-3.784739999999999952e-05
-3.623153000000000240e-05
-3.137823999999999995e-05
-3.521671999999999916e-05
-4.329914999999999692e-05
-3.932337000000000159e-05
-3.452331000000000269e-05
-2.633626999999999849e-05
-3.269185000000000108e-05
-2.890688000000000131e-05
-2.512000000000000005e-05
-3.947040000000000075e-05
-5.104358999999999963e-05
-4.227355999999999849e-05
-4.290889999999999841e-05
-3.094212999999999846e-05
-1.653922000000000053e-05
-2.490938000000000104e-05
-2.902641999999999847e-05
-4.101233000000000244e-05
-4.006442999999999750e-05
-3.735864000000000117e-05
-2.965731999999999949e-05
-2.328592000000000151e-05
-2.121533999999999939e-05
-3.673569000000000064e-05
-3.624372000000000135e-05
-3.484401000000000116e-05
-3.367796000000000239e-05
-2.860227000000000017e-05
-1.914565999999999924e-05
-3.187561999999999823e-05
-3.499315999999999955e-05
-3.732385000000000010e-05
-3.089541000000000308e-05
-3.616064999999999742e-05
-4.011565999999999667e-05
-4.717709999999999932e-05
-3.697917999999999854e-05
-4.611963000000000011e-05
-6.123187000000000367e-05
-6.461329999999999342e-05
-6.535582000000000338e-05
-7.841564000000000466e-05
-6.975677000000000060e-05
-6.635897000000000410e-05
-6.831776000000000233e-05
-7.854158000000000569e-05
-8.458550999999999917e-05
-8.096245999999999326e-05
-8.142784999999999661e-05
-5.498706999999999868e-05
-3.297431000000000109e-05
-2.806664000000000018e-06
-6.732104999999999811e-06
1.881279999999999969e-06
-1.947957000000000110e-06
2.810313000000000074e-05
2.010368000000000062e-05
3.292168999999999955e-05
4.586648999999999799e-05
4.298097999999999925e-05
5.384563000000000034e-05
5.478352000000000297e-05
4.893763999999999992e-05
5.985767999999999981e-05
5.788651000000000289e-05
4.453205000000000336e-05
2.266017000000000161e-05
3.616448000000000107e-05
3.452344999999999893e-05
3.706701999999999735e-05
3.251054000000000265e-05
2.011527000000000164e-05
1.581012999999999833e-05
1.953107999999999868e-05
2.108063000000000149e-05
-5.208544999999999951e-06
-4.877763000000000075e-05
-1.017393000000000035e-04
-1.038329999999999933e-04
-1.119247000000000026e-04
-1.742370999999999991e-04
-2.589359999999999752e-04
-3.117590999999999743e-04
-2.361591999999999869e-04
3.846069000000000191e-05
3.236323999999999950e-04
4.457867000000000123e-04
4.540702000000000084e-04
4.519511000000000036e-04
3.919695999999999749e-04
3.270952000000000256e-04
2.297893000000000125e-04
1.081570000000000014e-04
4.220637000000000261e-06
-4.204126999999999804e-05
-5.059739999999999773e-05
-7.301334999999999781e-05
-1.154454000000000043e-04
-1.065051000000000046e-04
-7.371241000000000327e-05
-9.085023000000000176e-05
-1.170030999999999979e-04
-1.177239000000000063e-04
-9.226105999999999381e-05
-8.748015000000000641e-05
-1.007745000000000022e-04
-1.091584999999999951e-04
-7.938319999999999578e-05
-6.929274999999999823e-05
-8.263563000000000082e-05
-8.296303000000000043e-05
-7.730483999999999490e-05
-5.724432999999999882e-05
-5.790158000000000002e-05
-6.924442000000000542e-05
-5.039416999999999730e-05
-4.849976999999999728e-05
-5.985731000000000103e-05
-4.483666000000000111e-05
-4.207913999999999773e-05
-5.575267999999999760e-05
-4.505577000000000112e-05
-3.248889999999999992e-05
-4.058498999999999782e-05
-4.035935000000000179e-05
-3.320857999999999774e-05
-2.287550999999999878e-05
-1.161128000000000041e-05
-1.745292000000000162e-05
-3.006638999999999997e-05
-2.867372000000000098e-05
-2.735853999999999844e-05
-3.407579000000000261e-05
-2.178378000000000169e-05
-1.004315999999999957e-05
-2.095853000000000142e-05
-2.023346999999999993e-05
-2.411778000000000001e-05
-1.015929000000000044e-05
-2.322348000000000080e-05
-2.186364000000000130e-05
-1.860352000000000040e-05
-2.942177999999999870e-05
-2.072780000000000168e-05
-1.320927999999999934e-05
-2.942177000000000139e-05
-1.267431000000000063e-05
-8.903612000000000093e-06
-3.416644999999999794e-06
-5.759471000000000341e-07
3.512000000000000002e-06
4.404024999999999733e-06
1.561919000000000046e-05
1.192570000000000002e-05
9.064930000000000638e-06
1.132207999999999986e-05
2.231092000000000153e-05
3.288241000000000286e-05
4.949770999999999945e-05
5.604509000000000248e-05
5.922380000000000038e-05
7.948177999999999374e-05
9.436701000000000030e-05
1.050411000000000064e-04
1.164456000000000020e-04
1.232270000000000045e-04
1.092745000000000055e-04
1.038409000000000039e-04
1.124226000000000034e-04
1.193737999999999988e-04
1.259009000000000061e-04
1.336366999999999872e-04
1.298801000000000035e-04
1.242249999999999973e-04
1.177012999999999974e-04
1.192365000000000026e-04
1.187781999999999938e-04
1.076020000000000042e-04
1.000697000000000018e-04
1.080468000000000037e-04
9.447741999999999913e-05
8.307972000000000490e-05
7.321996000000000429e-05
6.721521000000000049e-05
7.138438000000000584e-05
5.011093999999999764e-05
3.686433000000000082e-05
4.609962000000000299e-05
4.764150000000000118e-05
4.502631000000000022e-05
5.207980000000000237e-05
4.059794000000000250e-05
2.166972000000000163e-05
1.771894000000000013e-05
2.563113000000000137e-05
1.702856999999999949e-05
1.450286999999999969e-06
5.087082999999999813e-08
1.319687999999999925e-06
6.302079000000000246e-06
3.499767999999999896e-06
1.396639999999999938e-06
-1.201997000000000013e-06
-1.058172999999999940e-05
-4.185109999999999814e-06
5.657025000000000272e-06
4.943944999999999978e-06
-8.129356999999999491e-06
-8.883118000000000624e-06
-5.198762999999999712e-06
-1.422125000000000042e-05
-4.930772000000000366e-06
-5.777734000000000271e-06
-6.863141000000000059e-06
-3.752166999999999985e-06
3.775139999999999909e-06
-1.021705999999999972e-05
-2.103310000000000027e-05
-1.878404000000000117e-05
-3.245021999999999778e-05
-2.143672999999999965e-05
-1.874141000000000053e-05
-2.228393000000000062e-05
-5.847164000000000384e-06
-1.068168000000000002e-05
-2.465681000000000152e-05
-8.397054000000000462e-06
-1.334121999999999998e-05
-1.255395000000000031e-05
-7.605281000000000377e-06
-9.198377000000000311e-06
-2.270820000000000054e-05
-2.784607999999999954e-05
-2.828731000000000005e-05
-2.495108999999999831e-05
-2.549276999999999885e-05
-2.653933000000000057e-05
-2.845631000000000131e-05
-2.403959999999999935e-05
-1.512903999999999974e-05
-2.501970000000000035e-05
-2.505240000000000090e-05
-2.881610000000000012e-05
-3.344744999999999771e-05
-3.792388000000000323e-05
-3.759859000000000215e-05
-2.837631999999999939e-05
-2.061992000000000027e-05
-3.821751999999999929e-05
-3.579252000000000133e-05
-3.453070999999999859e-05
-4.111021999999999956e-05
-3.280964000000000119e-05
-2.515431000000000142e-05
-4.431381999999999715e-05
-5.412145999999999732e-05
-4.917946000000000296e-05
-3.199642999999999953e-05
-3.362372999999999664e-05
-3.059347000000000238e-05
-3.315709000000000072e-05
-4.088128000000000307e-05
-3.579262000000000155e-05
-3.725260999999999704e-05
-4.246203999999999707e-05
-4.294342000000000092e-05
-3.823068999999999903e-05
-3.860104000000000134e-05
-3.177087000000000232e-05
-2.152096000000000003e-05
-1.887177999999999976e-05
-2.635036000000000160e-05
-2.815294999999999953e-05
-2.688302000000000134e-05
-2.335682000000000112e-05
-2.006519000000000160e-05
-1.494014000000000058e-05
-3.017445000000000042e-05
-2.994165000000000156e-05
-3.496930999999999808e-05
-2.673991999999999927e-05
-3.167551999999999992e-05
-3.229599000000000315e-05
-2.633249999999999903e-05
-2.552219000000000034e-05
-3.325719000000000337e-05
-3.222914000000000226e-05
-1.344681999999999944e-05
-6.124603999999999883e-06
-3.639718999999999702e-05
-2.950594000000000095e-05
-5.636104000000000070e-05
-6.180539999999999613e-05
-6.532735000000000397e-05
-6.416805000000000306e-05
-6.517168999999999740e-05
-7.399073999999999896e-05
-5.707585999999999736e-05
-5.854229000000000290e-05
-5.629389999999999985e-05
-6.219030000000000662e-05
-5.305784000000000157e-05
-1.995171999999999877e-05
-2.369502000000000069e-05
-1.250314000000000003e-05
5.965434999999999577e-06
9.329069000000000380e-07
1.331096000000000071e-05
3.331519000000000179e-05
3.570863000000000102e-05
4.725590000000000270e-05
5.115910000000000287e-05
5.969453999999999852e-05
6.490331999999999373e-05
5.817689000000000128e-05
5.425843999999999817e-05
4.262337000000000048e-05
3.538718999999999822e-05
3.567996000000000118e-05
4.561398999999999998e-05
4.548999999999999984e-05
2.755458000000000072e-05
2.691140999999999854e-05
1.394439000000000084e-05
1.163952000000000067e-05
2.208938000000000093e-05
2.915528000000000049e-05
-5.714610000000000162e-06
-4.260153999999999802e-05
-7.389407999999999979e-05
-6.190587000000000433e-05
-5.883582999999999874e-05
-9.868738999999999908e-05
-1.960812999999999890e-04
-2.858846000000000174e-04
-2.366339999999999980e-04
2.072740000000000080e-05
2.604163000000000159e-04
3.898036000000000231e-04
3.622405999999999890e-04
3.590323999999999881e-04
3.529361999999999972e-04
3.401874000000000152e-04
2.734147000000000031e-04
1.444853999999999973e-04
2.948431999999999963e-05
-2.234874000000000111e-05
-3.586141000000000263e-05
-5.880363000000000267e-05
-1.069518999999999949e-04
-1.237826000000000030e-04
-9.678544000000000621e-05
-8.421484999999999551e-05
-1.073091000000000057e-04
-1.051087000000000055e-04
-8.769991999999999838e-05
-7.241238999999999738e-05
-8.848083999999999767e-05
-1.047305000000000030e-04
-8.700703000000000441e-05
-7.279190999999999743e-05
-7.175286999999999323e-05
-8.393031999999999977e-05
-7.971688000000000103e-05
-7.940208000000000194e-05
-6.681558000000000310e-05
-6.362877999999999492e-05
-6.661667999999999388e-05
-6.150939999999999761e-05
-5.701164999999999819e-05
-5.121545000000000107e-05
-4.332423000000000312e-05
-4.232127000000000214e-05
-3.728261000000000183e-05
-3.949766999999999753e-05
-4.259907000000000141e-05
-3.915119999999999879e-05
-3.895065000000000289e-05
-3.675671000000000065e-05
-2.774409000000000020e-05
-9.311936999999999271e-06
-2.271283999999999987e-05
-2.173350999999999853e-05
-1.855355000000000128e-05
-1.572386000000000093e-05
-1.312190999999999953e-05
-1.265651000000000056e-05
-2.824374000000000142e-05
-2.494505999999999999e-05
-1.320239000000000015e-05
-1.426317000000000052e-05
-1.951827000000000041e-05
-1.606399000000000000e-05
-2.262763999999999940e-05
-1.095899999999999960e-05
1.200174000000000090e-06
-4.618623999999999946e-06
-2.250711000000000074e-05
-2.232820000000000079e-05
-1.422651999999999947e-07
2.943565000000000167e-06
-3.373101999999999998e-06
1.174249000000000080e-05
1.029226000000000029e-05
5.276914000000000211e-06
-1.833187999999999964e-06
1.942702000000000022e-05
2.151046000000000072e-05
4.469781999999999889e-05
4.669959000000000192e-05
2.977137999999999955e-05
4.002744999999999909e-05
4.720303999999999792e-05
6.155154000000000463e-05
8.482982000000000022e-05
9.141579000000000588e-05
9.412634999999999709e-05
1.130406000000000032e-04
1.094833000000000026e-04
1.047716999999999984e-04
1.129137000000000028e-04
1.180143000000000061e-04
1.203551999999999958e-04
1.242833000000000100e-04
1.293543000000000026e-04
1.168821000000000036e-04
1.116858000000000005e-04
1.091026000000000013e-04
1.001875999999999960e-04
8.867545000000000494e-05
8.160794000000000457e-05
9.594476000000000057e-05
9.861120999999999602e-05
9.540630999999999559e-05
8.406452999999999658e-05
4.305262999999999712e-05
5.566913000000000075e-05
6.583098999999999971e-05
6.639274999999999550e-05
5.860650000000000207e-05
5.352642999999999838e-05
3.231923000000000261e-05
3.668030000000000184e-05
3.885904999999999855e-05
3.215786000000000317e-05
2.684122000000000116e-05
2.326603999999999993e-05
2.938662999999999955e-05
1.437692999999999992e-05
6.270210000000000399e-06
1.335428999999999950e-05
2.601544000000000108e-05
2.342734999999999856e-05
5.685059000000000350e-06
-1.185478999999999971e-05
-9.491743999999999632e-06
-1.959435000000000155e-06
-6.420335999999999688e-07
3.953904999999999882e-06
1.308931999999999990e-05
-1.682559999999999947e-06
6.601207999999999801e-06
7.257209000000000197e-06
2.574550000000000194e-06
-6.457323000000000415e-06
-2.359836999999999798e-06
-3.644819000000000127e-06
-2.161463999999999826e-06
5.155461000000000004e-06
4.971778999999999617e-06
3.176962999999999859e-06
-4.944441000000000116e-06
-7.556496000000000301e-06
1.328798000000000038e-06
3.888622999999999920e-06
-2.195285000000000107e-05
-2.191472000000000014e-05
-2.375616999999999925e-05
-9.945315000000000511e-06
-1.533044000000000090e-05
-1.070459000000000011e-05
-2.089644999999999879e-05
-1.786390000000000018e-05
-6.860856999999999693e-06
-8.919712999999999213e-06
-1.879223000000000151e-05
-1.783339000000000037e-05
-1.965582000000000047e-05
-1.126259000000000053e-05
-1.874442999999999834e-05
-1.604557999999999961e-05
-3.368783000000000167e-05
-3.442219999999999715e-05
-2.286237000000000113e-05
-3.047562999999999878e-05
-2.438228000000000061e-05
-2.009160999999999990e-05
-1.946093000000000071e-05
-3.190870000000000165e-05
-2.911693000000000110e-05
-2.469728000000000014e-05
-2.816949999999999855e-05
-2.440262000000000049e-05
-1.633252000000000130e-05
-2.357588999999999833e-05
-2.958946999999999980e-05
-2.935760000000000163e-05
-2.667137999999999874e-05
-3.687693000000000134e-05
-3.449744000000000221e-05
-2.319291000000000018e-05
-1.774748999999999836e-05
-1.694989000000000112e-05
-1.994812000000000104e-05
-2.350822000000000106e-05
-2.501774999999999946e-05
-3.207280000000000233e-05
-3.078315999999999751e-05
-2.459394999999999854e-05
-2.135718999999999872e-05
-1.839802000000000042e-05
-3.912291999999999913e-05
-4.610904999999999859e-05
-4.179978999999999845e-05
-4.151155000000000068e-05
-2.691081000000000061e-05
-2.098134999999999860e-05
-2.898903999999999918e-05
-2.855842999999999958e-05
-1.389012999999999977e-05
-2.130647000000000134e-05
-2.152343000000000003e-05
-1.977837000000000152e-05
-3.656307000000000025e-05
-3.369899999999999702e-05
-3.507179999999999852e-05
-2.677855999999999862e-05
-1.842413000000000075e-05
-1.700897000000000056e-05
-3.553232000000000000e-05
-5.624066000000000238e-05
-4.514193999999999829e-05
-2.245240999999999939e-05
-3.337282000000000144e-05
-4.440615999999999905e-05
-6.150750000000000022e-05
-6.936103000000000429e-05
-7.324134999999999630e-05
-6.596372000000000140e-05
-7.333003000000000644e-05
-6.940737999999999411e-05
-6.604466999999999933e-05
-6.063090000000000254e-05
-6.447666000000000280e-05
-6.121151000000000239e-05
-4.222480000000000271e-05
-1.814367999999999905e-05
-1.649708000000000028e-05
-1.987228000000000144e-06
7.428788999999999831e-06
1.987184999999999847e-05
3.155592000000000195e-05
3.858802999999999924e-05
3.290366999999999934e-05
4.641528000000000125e-05
5.816042000000000108e-05
5.540061000000000014e-05
5.375820999999999703e-05
3.196934000000000180e-05
3.206934999999999815e-05
3.802720000000000075e-05
4.062486000000000189e-05
3.563036000000000084e-05
4.316955999999999805e-05
2.988274000000000046e-05
3.389179999999999965e-05
2.269423999999999975e-05
1.681120999999999993e-05
5.601139999999999875e-06
2.870572999999999985e-06
1.169335000000000088e-06
-3.607159000000000136e-05
-6.855642000000000116e-05
-1.031109000000000024e-04
-9.740635000000000634e-05
-1.415679000000000037e-04
-2.260441000000000132e-04
-2.883338999999999737e-04
-2.865947999999999890e-04
-6.772606999999999987e-05
2.326450999999999996e-04
4.119522999999999826e-04
4.406190000000000041e-04
4.354704000000000040e-04
4.009654000000000083e-04
3.387764000000000248e-04
2.700735000000000223e-04
1.537706000000000012e-04
3.643872000000000202e-05
-2.961109999999999844e-05
-3.502321000000000107e-05
-5.882845999999999816e-05
-9.073425000000000630e-05
-1.102055999999999940e-04
-1.066256000000000045e-04
-9.786197000000000385e-05
-1.143132000000000019e-04
-1.220466999999999982e-04
-9.860370999999999990e-05
-7.582479999999999949e-05
-8.636461000000000387e-05
-9.532701000000000466e-05
-8.239301999999999672e-05
-7.251095999999999464e-05
-7.481078999999999800e-05
-8.745767000000000590e-05
-8.498509000000000662e-05
-6.846090000000000042e-05
-6.801005999999999848e-05
-6.986748999999999401e-05
-5.406926999999999876e-05
-4.984529000000000130e-05
-5.116859000000000267e-05
-5.500834000000000263e-05
-5.285811000000000204e-05
-4.691873999999999795e-05
-4.393756000000000153e-05
-2.617923000000000041e-05
-4.076587000000000006e-05
-4.352309000000000277e-05
-3.841647999999999916e-05
-4.551080999999999871e-05
-2.796642999999999915e-05
-2.180374999999999940e-05
-3.143439999999999841e-05
-2.514298999999999896e-05
-1.784155999999999931e-05
-2.586790000000000012e-05
-3.444602999999999722e-05
-3.615353000000000078e-05
-3.591965999999999822e-05
-3.150632000000000161e-05
-1.506817000000000044e-05
-2.286623000000000011e-05
-2.230061999999999927e-05
-3.788190000000000063e-05
-2.716247000000000084e-05
-1.570276999999999941e-05
-2.592720999999999871e-05
-2.327813999999999936e-05
-2.268777999999999846e-05
-1.418296000000000015e-05
-6.751297999999999578e-06
-6.669644000000000004e-06
-8.526127999999999490e-06
-1.645551999999999996e-05
5.306063999999999754e-06
1.230145000000000061e-05
5.663565000000000382e-06
8.068425000000000596e-06
5.443576000000000039e-06
2.654323999999999966e-05
3.891035000000000262e-05
4.510117999999999972e-05
4.530497999999999936e-05
5.537904000000000231e-05
6.151372000000000166e-05
6.917765999999999727e-05
7.031004999999999948e-05
7.452114999999999716e-05
1.001637999999999980e-04
1.161246999999999963e-04
1.193876000000000019e-04
1.315741000000000046e-04
1.326296999999999882e-04
1.115694000000000028e-04
1.264992000000000102e-04
1.262529999999999989e-04
1.285458000000000119e-04
1.172258000000000051e-04
1.099126000000000020e-04
1.174145999999999990e-04
1.136115999999999949e-04
9.683564999999999502e-05
1.024606000000000063e-04
9.824471999999999947e-05
8.900559999999999364e-05
8.711824000000000499e-05
8.636545999999999557e-05
7.240649000000000477e-05
7.355209999999999667e-05
5.513838999999999980e-05
5.709603999999999960e-05
4.598501000000000173e-05
4.935392999999999725e-05
4.464115999999999934e-05
4.916428999999999884e-05
4.816215000000000101e-05
3.495532000000000196e-05
1.828873999999999932e-05
1.980875999999999972e-05
1.118270000000000052e-05
1.209684999999999922e-05
3.596595999999999810e-05
2.205247000000000064e-05
1.109620000000000059e-05
7.225691999999999902e-06
3.339262000000000166e-06
3.223652999999999915e-07
5.699279999999999667e-07
3.124994999999999800e-06
-1.254533000000000038e-05
-7.401440999999999632e-06
5.670763999999999837e-06
-3.601218999999999816e-06
-5.053538999999999999e-06
-7.897657999999999687e-07
6.852852999999999828e-06
5.355333999999999877e-06
5.115347000000000204e-06
-1.283787999999999981e-05
-1.180862000000000045e-05
-1.100011999999999964e-05
3.249727999999999915e-06
-4.097112999999999850e-06
-1.836048000000000009e-05
-1.837596999999999950e-05
-7.513823000000000379e-06
-9.580007999999999978e-06
-5.543970000000000217e-06
-6.870570000000000357e-06
-1.662511999999999915e-05
-1.623363999999999930e-05
-1.620907999999999898e-05
-4.152188000000000334e-06
-3.824089999999999669e-06
-7.444393999999999659e-06
-3.812780000000000026e-06
-2.370679000000000075e-06
-1.177978999999999958e-05
-6.689851000000000232e-06
-2.094675000000000066e-05
-1.929967999999999950e-05
-1.926991000000000064e-05
-3.108334999999999777e-05
-2.175782000000000169e-05
-9.377187000000000044e-06
-2.367445999999999898e-05
-2.333298000000000034e-05
-4.561210000000000329e-06
-1.309093000000000072e-05
-4.352683000000000013e-05
-3.183163999999999802e-05
-4.016122999999999969e-05
-4.166383000000000120e-05
-2.794221999999999960e-05
-2.481123999999999998e-05
-3.405879999999999991e-05
-2.795151999999999966e-05
-2.295782000000000036e-05
-2.730314999999999964e-05
-1.934227000000000074e-05
-3.580472000000000098e-05
-4.260230999999999767e-05
-4.065583000000000001e-05
-3.626855999999999754e-05
-3.757455000000000094e-05
-3.466360999999999862e-05
-2.867164000000000117e-05
-2.126705000000000164e-05
-3.238698999999999940e-05
-3.779098999999999713e-05
-2.970647999999999955e-05
-2.977969999999999882e-05
-3.208219000000000191e-05
-2.774091000000000135e-05
-4.917607999999999691e-05
-4.698059000000000143e-05
-4.470177999999999809e-05
-3.415060999999999862e-05
-3.342930000000000196e-05
-4.212512000000000233e-05
-4.760602999999999997e-05
-3.367369000000000183e-05
-2.793812000000000078e-05
-3.261962000000000330e-05
-2.836643999999999941e-05
-3.335589999999999687e-05
-2.960097999999999861e-05
-3.019823000000000039e-05
-2.702675000000000005e-05
-2.726516999999999903e-05
-1.727394000000000016e-05
-2.190093999999999838e-05
-3.454443000000000292e-05
-2.840797000000000103e-05
-3.418068000000000153e-05
-2.691504999999999907e-05
-2.704973999999999896e-05
-2.658881999999999999e-05
-2.944295999999999974e-05
-4.938842999999999836e-05
-4.318956000000000124e-05
-5.144188999999999885e-05
-7.833828000000000037e-05
-6.155472999999999739e-05
-6.017290000000000117e-05
-6.281650999999999804e-05
-6.778214000000000559e-05
-7.738896999999999844e-05
-7.682522999999999967e-05
-6.800189999999999685e-05
-5.298947000000000276e-05
-2.729538000000000157e-05
-1.801028999999999862e-05
-8.984408999999999516e-06
1.543787999999999863e-05
8.971729000000000173e-06
1.437851000000000034e-05
1.331779000000000078e-05
2.987310000000000033e-05
6.451216000000000611e-05
8.556709999999999598e-05
7.703656999999999823e-05
5.275369000000000211e-05
4.757353999999999717e-05
6.734817000000000472e-05
8.978391000000000009e-05
6.209711000000000625e-05
4.143270000000000058e-05
2.671602000000000108e-05
2.473591999999999948e-05
3.502213000000000006e-05
3.030151999999999919e-05
2.832283000000000137e-05
1.704530000000000094e-05
3.706190999999999902e-05
3.592050999999999670e-05
1.783243000000000097e-05
-2.349966999999999925e-05
-5.610535000000000316e-05
-8.184301999999999690e-05
-8.854813000000000224e-05
-1.166204999999999992e-04
-1.779891000000000134e-04
-2.422410000000000004e-04
-2.947420999999999982e-04
-1.736688999999999865e-04
1.263063999999999940e-04
3.736017999999999913e-04
4.580121000000000257e-04
4.672443000000000082e-04
4.422561999999999891e-04
3.888833999999999976e-04
3.052654000000000131e-04
1.967009999999999993e-04
6.889008000000000501e-05
-2.138295000000000167e-05
-3.796434000000000115e-05
-3.316200999999999931e-05
-7.282156999999999877e-05
-1.223971999999999875e-04
-9.441440999999999582e-05
-6.440221999999999950e-05
-9.107772000000000524e-05
-1.033296000000000008e-04
-9.575612000000000435e-05
-8.496384999999999799e-05
-7.735189000000000658e-05
-1.029404000000000012e-04
-1.042235999999999960e-04
-7.582625000000000606e-05
-6.359461000000000335e-05
-7.478826999999999470e-05
-8.065243000000000260e-05
-6.368510000000000457e-05
-5.918076999999999886e-05
-5.923410000000000264e-05
-6.205067999999999727e-05
-6.518883000000000381e-05
-5.163174999999999910e-05
-3.402186999999999822e-05
-5.049873000000000025e-05
-5.344201000000000165e-05
-4.716966000000000062e-05
-4.746091999999999959e-05
-2.827025999999999994e-05
-2.574251000000000029e-05
-2.985684999999999858e-05
-2.991362999999999976e-05
-3.411787999999999936e-05
-2.745900999999999987e-05
-2.035039000000000016e-05
-4.132511000000000252e-05
-3.100980000000000251e-05
-4.277792999999999787e-05
-2.844022000000000059e-05
-2.573647000000000128e-05
-2.408385000000000151e-05
-2.327148999999999833e-05
-2.796054000000000047e-05
-4.065821999999999779e-05
-2.586335000000000031e-05
-3.880673999999999837e-05
-3.786597999999999825e-05
-3.935068000000000116e-05
-2.655711000000000093e-05
-2.160832999999999984e-05
-1.968024999999999847e-05
-2.106384999999999993e-05
-8.552084000000000229e-06
-1.686756999999999883e-05
-3.270532000000000148e-05
-3.307826000000000201e-05
-2.061229999999999914e-05
-5.817389000000000318e-06
1.076681999999999969e-05
4.803780999999999544e-07
-7.453063000000000304e-06
2.697215999999999791e-06
5.604203999999999749e-06
1.827541999999999925e-05
3.149433000000000310e-05
4.913313000000000099e-05
5.310145000000000300e-05
6.589956999999999965e-05
8.264535000000000316e-05
1.114894000000000036e-04
1.045490000000000048e-04
1.029902999999999955e-04
1.093041999999999961e-04
1.109485000000000034e-04
1.050203999999999949e-04
1.194043000000000047e-04
1.200225999999999984e-04
1.156802000000000042e-04
1.143136999999999962e-04
1.188963000000000021e-04
1.051982999999999987e-04
9.852960999999999328e-05
1.055531000000000042e-04
1.062895999999999996e-04
1.027014000000000057e-04
7.482357999999999826e-05
7.802604000000000419e-05
9.180303000000000389e-05
9.059496000000000649e-05
8.463399000000000247e-05
8.213538999999999899e-05
5.233379000000000297e-05
5.010958999999999807e-05
5.612289999999999759e-05
3.338205999999999731e-05
2.537196000000000094e-05
3.100866999999999800e-05
3.190824000000000335e-05
3.078417000000000040e-05
1.623898000000000016e-05
5.455439000000000336e-06
6.530938000000000218e-06
1.991511999999999983e-05
3.240959000000000152e-05
2.846919000000000110e-05
2.608091999999999847e-06
-6.281426999999999592e-07
-4.076922000000000063e-06
-6.304521000000000315e-06
3.907049000000000114e-07
-1.054094999999999943e-05
-5.644289999999999622e-06
-6.134025000000000110e-06
1.383200999999999973e-06
-5.783707999999999581e-06
-1.533093999999999860e-05
-2.127731000000000110e-05
-6.701194999999999967e-06
-2.073873000000000058e-05
-2.225876999999999898e-05
-1.132434999999999941e-05
-1.409879999999999959e-05
-1.387622000000000078e-05
-1.163567000000000069e-05
4.691106999999999841e-06
7.721868999999999912e-06
-7.295549999999999971e-06
-1.276323999999999988e-06
-7.623749000000000248e-06
-1.449526999999999954e-05
-2.306236999999999922e-05
-5.173031000000000074e-06
-4.100665999999999881e-06
-1.347527999999999984e-05
-1.347977000000000054e-05
-2.222433999999999938e-05
-1.937216999999999853e-05
-2.765784000000000081e-05
-3.148135999999999703e-05
-1.955553000000000147e-05
-1.988981000000000126e-05
-1.326880999999999977e-05
-1.392746000000000065e-05
-1.663353000000000132e-05
-2.055371000000000010e-05
-1.632125999999999965e-05
-1.198235999999999957e-05
-1.853957999999999979e-05
-3.116501999999999863e-05
-3.013040999999999940e-05
-3.422573000000000206e-05
-1.282578999999999939e-05
-1.304768000000000075e-05
-2.798013999999999940e-05
-2.332078000000000070e-05
-1.904000000000000066e-05
-2.207172999999999950e-05
-1.288746000000000044e-05
-3.379180999999999792e-05
-4.461886999999999857e-05
-3.229666000000000259e-05
-2.544970000000000131e-05
-4.226587000000000264e-05
-3.084249000000000089e-05
-2.844727999999999981e-05
-3.681071999999999778e-05
-4.008488999999999900e-05
-3.008859999999999852e-05
-1.777059999999999889e-05
-2.427235999999999879e-05
-5.037899999999999995e-05
-4.028831999999999986e-05
-3.916718999999999930e-05
-3.161861999999999713e-05
-2.638887999999999933e-05
-1.956633000000000143e-05
-1.997642999999999942e-05
-3.054460999999999960e-05
-1.761302000000000031e-05
-1.715751000000000033e-05
-3.188703999999999752e-05
-4.185772999999999946e-05
-4.012338000000000140e-05
-2.270587000000000018e-05
-2.682635000000000108e-05
-2.706144000000000090e-05
-2.923364000000000019e-05
-2.153565999999999838e-05
-2.977183000000000054e-05
-4.407436000000000334e-05
-2.458333999999999831e-05
-3.572943999999999990e-05
-4.642557999999999673e-05
-4.438455999999999912e-05
-4.248013000000000217e-05
-6.450914999999999883e-05
-6.151163000000000453e-05
-6.751119999999999832e-05
-8.468669000000000283e-05
-7.641791000000000642e-05
-6.221529000000000653e-05
-7.027870000000000189e-05
-7.260625999999999354e-05
-5.884626999999999724e-05
-4.536152999999999800e-05
-1.562445999999999982e-05
-1.370702000000000078e-05
-1.631295000000000108e-05
-1.584374999999999887e-05
-7.413991000000000045e-06
1.142171000000000012e-05
3.358736000000000024e-05
3.048977999999999931e-05
5.124103000000000159e-05
5.537108000000000112e-05
5.615200000000000042e-05
5.164523000000000019e-05
4.381662999999999861e-05
4.740631000000000115e-05
5.462883000000000327e-05
3.090287000000000318e-05
3.232592000000000305e-05
2.294109999999999962e-05
2.703935000000000057e-05
2.825425999999999873e-05
3.617501999999999979e-05
1.491895000000000054e-05
7.505127000000000048e-06
2.792437999999999843e-05
2.215773999999999904e-05
-2.544422000000000082e-05
-5.001535999999999948e-05
-8.176335999999999435e-05
-6.528611000000000570e-05
-6.639554000000000094e-05
-1.299423999999999978e-04
-2.145054999999999878e-04
-2.945312999999999968e-04
-2.083568999999999905e-04
7.579188000000000049e-05
2.774353000000000236e-04
3.658544000000000119e-04
3.593544000000000165e-04
3.469184999999999955e-04
3.349534999999999839e-04
3.338853999999999932e-04
2.518905000000000102e-04
1.113251000000000025e-04
2.124333999999999980e-05
-1.547563000000000009e-05
-1.821715999999999958e-05
-6.436440999999999723e-05
-1.233817000000000117e-04
-1.054638000000000049e-04
-8.488202000000000626e-05
-7.534270000000000626e-05
-8.769307999999999422e-05
-1.003475000000000010e-04
-9.191290000000000560e-05
-8.664101000000000007e-05
-9.968359000000000150e-05
-9.220271000000000478e-05
-8.025282000000000661e-05
-5.320893000000000015e-05
-6.317648999999999997e-05
-6.198539999999999779e-05
-7.345690000000000476e-05
-7.032571999999999793e-05
-6.266803000000000586e-05
-4.818507999999999911e-05
-3.994802999999999977e-05
-4.357067999999999803e-05
-5.695012999999999746e-05
-4.830332999999999751e-05
-4.292275999999999899e-05
-4.511764999999999992e-05
-2.730894000000000149e-05
-3.165327000000000196e-05
-3.653503999999999774e-05
-3.921029999999999964e-05
-2.469937000000000066e-05
-1.672003000000000126e-05
-2.678047000000000009e-05
-3.739585000000000213e-05
-2.690650000000000065e-05
-1.995320000000000066e-05
-1.313049000000000005e-05
-6.838180999999999708e-06
-6.434225999999999609e-06
-1.732138999999999917e-05
-2.180338000000000062e-05
-2.919888999999999853e-05
-1.929224000000000081e-05
-1.114495000000000076e-05
-1.766156999999999834e-05
-2.045410999999999855e-05
-1.826465000000000139e-05
-1.424895000000000018e-05
-9.744867999999999616e-06
-1.808075999999999865e-05
-1.646653999999999837e-05
-8.459897000000000226e-06
9.268757999999999570e-07
-6.581578999999999857e-06
1.034225000000000080e-05
5.729186000000000173e-06
1.145070999999999933e-05
1.089372000000000011e-05
2.346205000000000011e-05
2.769267999999999860e-05
1.380672999999999986e-05
2.015274000000000045e-05
2.997524000000000000e-05
4.187170000000000095e-05
4.313621999999999677e-05
7.233618000000000578e-05
7.138377000000000383e-05
6.896546000000000631e-05
8.601624000000000097e-05
9.753059999999999757e-05
8.967807999999999639e-05
1.003499999999999997e-04
1.097660000000000058e-04
1.068803999999999940e-04
1.218083999999999974e-04
1.210603000000000037e-04
1.156083000000000024e-04
1.284853000000000080e-04
1.303823000000000070e-04
1.116442999999999976e-04
1.029683000000000014e-04
9.667367999999999426e-05
9.979278999999999700e-05
9.173778000000000650e-05
9.290024999999999878e-05
8.694879999999999666e-05
8.508287000000000282e-05
8.507930999999999773e-05
7.733260999999999954e-05
7.597798999999999590e-05
5.400558000000000208e-05
4.471005000000000064e-05
4.743314000000000102e-05
4.077970999999999923e-05
3.937089999999999942e-05
3.410096000000000156e-05
4.680888999999999764e-05
4.243742999999999664e-05
3.400210999999999826e-05
2.242038000000000166e-05
2.280822000000000098e-05
2.831474000000000125e-05
3.054990999999999767e-05
1.830271000000000082e-05
7.808524000000000525e-06
1.701769999999999971e-06
-1.574504999999999929e-05
7.302601999999999814e-06
2.447574000000000209e-06
-3.758465000000000191e-06
3.434973999999999852e-06
-7.917513000000000575e-06
-8.685089000000000830e-06
-1.615269999999999868e-05
-2.232617999999999840e-05
4.835641000000000413e-06
-2.835229000000000142e-06
1.950540999999999863e-06
1.033424999999999978e-06
8.194465999999999971e-07
1.184245999999999944e-05
1.193990999999999966e-05
3.832758000000000074e-06
-4.719770999999999945e-06
-1.310916000000000037e-05
-1.078991999999999952e-05
-1.181697000000000013e-05
-1.291611000000000058e-05
-6.791557999999999596e-06
-9.317003000000000622e-06
-1.387655999999999916e-05
-1.943314000000000144e-05
-1.360097000000000033e-05
-1.329687999999999999e-05
-2.040455999999999832e-05
-2.306933999999999892e-05
-1.484424999999999937e-05
-1.967002999999999842e-05
-1.746129000000000100e-05
-9.435184000000000295e-06
-5.655085000000000084e-06
-2.280029999999999920e-05
-2.052480000000000041e-05
-1.332251000000000062e-05
-1.301889999999999998e-05
-1.881718999999999932e-05
-1.522747000000000076e-05
-1.803170999999999951e-05
-3.162905000000000171e-05
-3.144079999999999889e-05
-1.957621000000000141e-05
-1.426705999999999991e-05
-3.134795000000000197e-05
-3.628521999999999748e-05
-3.330779999999999982e-05
-2.684203000000000023e-05
-1.509069000000000035e-05
-1.810322000000000114e-05
-2.908808999999999952e-05
-2.055645999999999935e-05
-3.086782999999999818e-05
-3.558361000000000336e-05
-2.928480000000000124e-05
-2.794694000000000114e-05
-2.983345999999999879e-05
-2.775218000000000032e-05
-4.343129999999999869e-05
-3.520464000000000113e-05
-3.157499000000000107e-05
-1.912580999999999976e-05
-2.987628999999999987e-05
-4.540659999999999992e-05
-3.462121000000000051e-05
-3.061415999999999964e-05
-2.076301000000000164e-05
-2.139489000000000007e-05
-3.157078999999999864e-05
-2.428083999999999909e-05
-3.027924999999999982e-05
-1.830966999999999981e-05
-2.873999999999999927e-05
-3.837964999999999769e-05
-3.431695000000000014e-05
-3.727728000000000167e-05
-3.442100000000000129e-05
-3.695888000000000146e-05
-3.766497999999999797e-05
-3.799995999999999929e-05
-4.156799999999999910e-05
-4.657472000000000120e-05
-4.281262999999999941e-05
-4.137713999999999666e-05
-4.411054000000000000e-05
-6.547074000000000600e-05
-6.936904999999999612e-05
-6.496776000000000222e-05
-6.251847000000000589e-05
-6.525111999999999742e-05
-6.452534999999999369e-05
-7.081060999999999660e-05
-7.076620999999999411e-05
-9.315165999999999507e-05
-7.785816999999999727e-05
-5.419234000000000231e-05
-3.622584999999999808e-05
-2.694135999999999984e-05
-1.561479000000000098e-05
-1.522166999999999990e-05
-1.305322000000000036e-05
1.397914000000000081e-05
1.524486999999999995e-05
3.293003000000000022e-05
4.339006000000000042e-05
4.567283999999999689e-05
5.912626000000000063e-05
5.219195000000000095e-05
4.697603000000000092e-05
5.349028999999999774e-05
4.781300999999999845e-05
5.118097000000000136e-05
5.264850000000000253e-05
4.064373000000000058e-05
4.564018000000000252e-05
3.890089999999999884e-05
8.659284999999999205e-06
1.284467000000000047e-05
8.215861999999999775e-06
1.362851000000000074e-05
2.696100000000000157e-05
1.003661000000000046e-05
-4.983624999999999909e-05
-8.542178999999999517e-05
-1.052451000000000065e-04
-1.015173000000000046e-04
-1.352202999999999901e-04
-2.155624000000000082e-04
-2.916713000000000140e-04
-2.860302000000000113e-04
-4.745744000000000010e-05
2.454838000000000094e-04
4.152189999999999831e-04
4.369218999999999816e-04
4.274759000000000046e-04
3.873535999999999906e-04
3.419809999999999907e-04
2.541212000000000158e-04
1.525739999999999930e-04
3.659035999999999842e-05
-1.804664000000000040e-05
-3.079089999999999686e-05
-4.738047000000000276e-05
-1.107470000000000020e-04
-1.253034000000000038e-04
-1.089008999999999995e-04
-9.091951999999999716e-05
-9.814271000000000550e-05
-1.048553000000000056e-04
-8.271234000000000030e-05
-8.352381999999999613e-05
-8.722616000000000581e-05
-8.863731000000000669e-05
-8.067746000000000531e-05
-7.422157000000000570e-05
-7.889204000000000572e-05
-8.815009999999999480e-05
-8.466966000000000412e-05
-6.791990999999999393e-05
-5.308231999999999968e-05
-5.527461000000000169e-05
-5.975052999999999864e-05
-5.734734000000000175e-05
-5.097088000000000215e-05
-6.237303999999999668e-05
-5.701802999999999727e-05
-4.424610000000000316e-05
-4.089629000000000278e-05
-3.955296000000000289e-05
-2.954159000000000120e-05
-2.851026999999999834e-05
-3.240547999999999861e-05
-3.582123999999999790e-05
-3.615411000000000070e-05
-3.073601999999999986e-05
-2.193600999999999871e-05
-2.431028999999999929e-05
-2.288140000000000085e-05
-1.664894999999999922e-05
-1.866857000000000073e-05
-2.768860999999999848e-05
-6.044252999999999642e-06
-1.457127999999999917e-05
-2.869033000000000081e-05
-2.737945000000000092e-05
-2.780435000000000087e-05
-3.318571999999999776e-05
-2.970432000000000091e-05
-2.307936999999999923e-05
-3.495583999999999768e-05
-1.573299999999999997e-05
-2.876275999999999903e-05
-2.881801999999999891e-05
-3.712166999999999944e-06
-1.097248999999999970e-05
-1.544461999999999918e-05
1.235504999999999998e-06
-3.833757999999999726e-06
-1.481259000000000042e-06
-3.436915000000000174e-07
1.982341000000000135e-06
2.289351000000000097e-05
1.915198000000000090e-05
2.249467000000000125e-05
4.246633999999999972e-05
4.480343000000000075e-05
4.564625000000000025e-05
6.503076000000000483e-05
8.321250999999999724e-05
9.186661000000000642e-05
1.037965000000000014e-04
1.134893999999999980e-04
1.102910000000000050e-04
1.177000999999999948e-04
1.132545999999999981e-04
1.308364000000000066e-04
1.268976999999999963e-04
1.338854000000000107e-04
1.252345999999999885e-04
1.184023000000000031e-04
1.168050999999999974e-04
1.131995999999999995e-04
1.198291000000000010e-04
1.114055000000000026e-04
9.526682999999999603e-05
8.937062999999999648e-05
9.594962000000000174e-05
1.053907999999999939e-04
9.668129999999999877e-05
7.665957999999999898e-05
5.533293000000000217e-05
5.765400000000000060e-05
6.789096000000000161e-05
5.488387999999999671e-05
5.493357999999999726e-05
5.449614999999999830e-05
4.078519999999999704e-05
3.184346999999999888e-05
3.480684999999999693e-05
3.547291999999999850e-05
1.266612999999999929e-05
1.659347000000000090e-05
1.835579000000000065e-05
1.851762999999999909e-05
1.536988999999999931e-05
5.174918999999999674e-06
-4.965402999999999798e-06
-6.573544000000000196e-06
-7.790162999999999160e-06
-5.585319000000000014e-06
2.474928999999999966e-06
2.452416999999999850e-06
-7.092331999999999878e-06
-6.745961999999999669e-06
1.329894000000000010e-06
-7.929614000000000241e-07
-3.435813000000000142e-07
9.108421999999999238e-06
1.779966000000000019e-06
3.415300000000000149e-06
-3.255263000000000024e-06
-1.051940999999999903e-06
-1.735851000000000061e-05
-1.047945000000000010e-05
-1.444595999999999916e-05
-6.082931999999999852e-06
-1.539666999999999907e-05
-1.867187999999999850e-05
-2.391186000000000114e-05
-1.906781000000000133e-05
-1.796459000000000006e-05
-5.997779999999999858e-06
-1.073969999999999985e-05
-2.664852999999999946e-05
-1.911775999999999905e-05
-2.353650000000000073e-05
-1.296975999999999964e-05
-9.876100000000000192e-06
-3.493967000000000068e-06
-4.917789999999999887e-06
-2.596648999999999878e-05
-3.090801999999999753e-05
-2.456207999999999845e-05
-1.926405000000000066e-05
-2.602072999999999845e-05
-2.420952000000000059e-05
-3.288499000000000039e-05
-2.847313999999999959e-05
-2.782573999999999966e-05
-2.803188000000000037e-05
-3.041015999999999956e-05
-2.599220000000000163e-05
-1.500012000000000030e-05
-1.971027000000000128e-05
-2.411145000000000104e-05
-2.105821999999999910e-05
-4.070324999999999692e-05
-3.341905000000000320e-05
-2.412206000000000127e-05
-2.604867000000000144e-05
-2.080213000000000068e-05
-2.598013000000000091e-05
-1.993955000000000122e-05
-4.194954999999999886e-05
-3.701121000000000304e-05
-3.117305999999999864e-05
-2.773719999999999932e-05
-2.248126000000000166e-05
-2.793950999999999976e-05
-4.085001999999999823e-05
-4.450185999999999882e-05
-3.639417000000000259e-05
-2.880362000000000121e-05
-2.662599999999999884e-05
-2.550241999999999968e-05
-3.291448999999999731e-05
-3.069966999999999808e-05
-1.792911000000000155e-05
-3.104583000000000223e-05
-3.082655999999999781e-05
-3.499050000000000321e-05
-2.887869000000000116e-05
-3.300717000000000267e-05
-3.912704999999999666e-05
-3.902047000000000149e-05
-3.903475999999999826e-05
-3.034782999999999977e-05
-1.844187999999999901e-05
-1.639397000000000052e-05
-2.857321000000000014e-05
-3.498686999999999999e-05
-3.491505999999999771e-05
-3.135870000000000183e-05
-2.508330000000000089e-05
-1.213556000000000007e-05
-1.390138000000000072e-05
-1.445649999999999957e-05
-2.464243999999999915e-05
-2.715907000000000016e-05
-1.274941999999999998e-05
-2.702957000000000081e-05
-2.673400999999999919e-05
-2.326596999999999842e-05
-3.121962000000000315e-05
-3.488997999999999828e-05
-5.356427000000000275e-05
-6.746361000000000306e-05
-7.496449000000000298e-05
-5.400161000000000219e-05
-6.758372000000000283e-05
-6.485877999999999500e-05
-6.268995999999999499e-05
-6.433180000000000636e-05
-6.072584000000000337e-05
-4.578869999999999750e-05
-3.660443000000000014e-05
-2.620162999999999870e-05
-4.815718999999999793e-06
2.416654999999999904e-06
-2.368759000000000016e-06
-3.848571999999999954e-06
1.439880000000000011e-05
3.924803000000000308e-05
4.900454999999999823e-05
5.106097000000000251e-05
5.802976000000000190e-05
5.662098999999999811e-05
5.964478000000000054e-05
6.670525999999999702e-05
6.250173000000000035e-05
5.952500999999999745e-05
5.055705000000000073e-05
5.476329999999999794e-05
5.518853999999999795e-05
5.449991999999999776e-05
5.629431000000000143e-05
3.438992000000000226e-05
2.006459000000000028e-05
2.476443000000000169e-05
2.501613999999999864e-05
2.729662000000000023e-05
2.695789000000000084e-05
-8.781431000000000119e-06
-6.858871999999999745e-05
-9.966054000000000178e-05
-9.180604999999999831e-05
-1.140668999999999971e-04
-1.872212999999999959e-04
-2.572429999999999899e-04
-3.091042999999999807e-04
-1.836507000000000135e-04
1.040137000000000033e-04
3.615650999999999783e-04
4.423529999999999845e-04
4.599647000000000110e-04
4.433050999999999919e-04
3.828979000000000258e-04
2.945595000000000179e-04
1.959937999999999936e-04
7.366849999999999440e-05
2.175897999999999940e-07
-2.860242000000000050e-05
-3.745825999999999735e-05
-8.568239999999999808e-05
-1.024082999999999932e-04
-9.200136000000000034e-05
-7.084408999999999412e-05
-7.292222000000000601e-05
-9.807692999999999815e-05
-8.735850999999999447e-05
-6.123233999999999589e-05
-7.278687999999999792e-05
-9.224457000000000576e-05
-8.274524999999999860e-05
-6.819031000000000408e-05
-6.117538999999999638e-05
-7.627769999999999646e-05
-7.860663000000000264e-05
-5.909326000000000281e-05
-5.349577000000000162e-05
-4.909528000000000270e-05
-4.577319999999999740e-05
-5.073063000000000052e-05
-4.355002999999999679e-05
-3.981034999999999739e-05
-4.668682000000000306e-05
-4.906245000000000322e-05
-3.262871000000000223e-05
-2.764267000000000007e-05
-2.944127000000000010e-05
-3.282481999999999924e-05
-2.604015999999999905e-05
-2.903074999999999983e-05
-2.967192000000000101e-05
-4.051144000000000256e-05
-2.526732999999999987e-05
-2.014423000000000144e-05
-2.200259999999999835e-05
-1.368137999999999944e-05
-2.615909000000000097e-05
-3.327420000000000068e-05
-2.921769999999999980e-05
-2.241602000000000159e-05
-2.058371000000000151e-05
-2.681833999999999978e-05
-2.814487000000000011e-05
-1.604361000000000071e-05
-2.279226999999999989e-05
-1.830431000000000094e-05
-1.862213999999999853e-05
-2.452315999999999815e-06
-2.773896000000000047e-05
-4.337181999999999838e-05
-3.533044999999999984e-05
-2.258027999999999991e-05
-2.330709999999999916e-05
-2.595893999999999917e-05
-1.231864999999999936e-05
-9.372615000000000048e-06
-1.282670000000000037e-05
-5.055730000000000128e-06
7.622426000000000363e-07
1.603033000000000005e-05
2.188238000000000105e-05
2.976530999999999844e-05
4.811939999999999875e-05
4.421245000000000052e-05
5.627903000000000316e-05
7.378860999999999417e-05
9.105663999999999425e-05
9.225280999999999944e-05
1.019431999999999966e-04
1.161771000000000028e-04
1.226253000000000065e-04
1.181303999999999964e-04
1.164094999999999974e-04
1.262772000000000113e-04
1.216498000000000021e-04
1.208309999999999956e-04
1.190689000000000011e-04
1.054620999999999944e-04
9.323026000000000479e-05
9.617873999999999727e-05
1.042483000000000027e-04
1.139118999999999961e-04
1.161060000000000027e-04
1.060392000000000062e-04
9.094232999999999365e-05
7.340834999999999656e-05
6.544433000000000162e-05
6.452644000000000218e-05
6.400792999999999620e-05
6.305321999999999598e-05
6.061451000000000116e-05
6.526719999999999744e-05
5.312009999999999985e-05
4.493656000000000332e-05
2.601728999999999836e-05
1.945740999999999842e-05
6.441678999999999722e-06
2.890954000000000104e-05
2.690927999999999861e-05
1.082158999999999916e-05
1.669636000000000009e-06
-3.167790999999999940e-06
1.570771999999999926e-06
-8.416561999999999395e-06
-6.981731999999999615e-06
2.978846000000000177e-06
-8.989811999999999793e-07
6.501994000000000008e-06
-2.050012000000000186e-06
-1.349013000000000021e-05
-1.811223999999999855e-05
-1.526801000000000089e-05
-6.209595000000000303e-06
-1.891381999999999978e-05
-2.321720999999999925e-05
-1.801425000000000121e-05
-1.363015000000000027e-05
-8.544286999999999938e-06
-1.029626999999999959e-05
-1.439694999999999944e-05
-1.155803000000000054e-05
-1.928818999999999871e-05
-5.014911000000000138e-06
-1.206175999999999918e-05
-8.296181999999999371e-06
-1.248080999999999986e-05
-1.428586000000000047e-05
-1.294551999999999968e-05
-1.021523999999999946e-05
-1.989756999999999862e-05
-1.441159999999999937e-05
-2.590051999999999846e-05
-2.399420000000000144e-05
-1.732060999999999882e-05
-1.987199000000000148e-05
-2.333349999999999945e-05
-1.240074999999999981e-05
-2.756509000000000072e-05
-2.922814000000000168e-05
-3.045682000000000090e-05
-3.046159999999999986e-05
-1.873184999999999922e-05
-2.089456999999999941e-05
-7.126290000000000002e-06
-2.727824999999999925e-05
-4.765297999999999789e-05
-4.006004000000000211e-05
-2.748783000000000004e-05
-3.823968999999999844e-05
-3.693184000000000045e-05
-2.958155000000000140e-05
-3.007126999999999915e-05
-3.457387000000000242e-05
-2.360659000000000127e-05
-2.829139000000000087e-05
-1.365418000000000079e-05
-2.520845000000000087e-05
-3.033298000000000109e-05
-2.608829999999999889e-05
-4.176362000000000249e-05
-3.510818000000000239e-05
-3.587139999999999676e-05
-3.933173999999999758e-05
-2.725935999999999916e-05
-2.398926000000000145e-05
-2.561020000000000088e-05
-2.469555999999999840e-05
-1.871676000000000069e-05
-3.086680000000000066e-05
-2.815599999999999944e-05
-1.305983999999999929e-05
-1.965143000000000169e-05
-2.150771999999999878e-05
-3.328973000000000289e-05
-3.831532999999999760e-05
-4.816648999999999968e-05
-5.099550000000000328e-05
-3.713356999999999758e-05
-3.463558000000000289e-05
-3.555128999999999890e-05
-3.583329000000000061e-05
-4.367467000000000175e-05
-3.021069999999999859e-05
-3.147595999999999874e-05
-2.433265999999999888e-05
-2.447083000000000165e-05
-1.538077000000000148e-05
-1.501467000000000002e-05
-1.738119999999999886e-05
-2.458269000000000028e-05
-2.679367999999999924e-05
-1.967530000000000117e-05
-2.440431000000000013e-05
-8.598433000000000825e-06
-2.540298999999999986e-05
-3.272053000000000163e-05
-2.781836999999999908e-05
-2.563119999999999949e-05
-2.638842999999999834e-05
-2.553544999999999960e-05
-3.134788999999999778e-05
-3.991753000000000065e-05
-4.234362000000000033e-05
-3.881526999999999878e-05
-4.881551000000000114e-05
-5.683908000000000130e-05
-6.204136999999999651e-05
-6.932508999999999731e-05
-6.266509000000000348e-05
-7.586643999999999864e-05
-7.003566999999999551e-05
-6.036248000000000216e-05
-4.912397999999999786e-05
-2.302500000000000063e-05
-2.627248999999999890e-06
1.037651999999999980e-06
-2.406273000000000043e-06
7.840214999999999270e-06
1.814250999999999852e-05
3.436800000000000027e-05
5.071697000000000038e-05
4.787864000000000209e-05
6.046084999999999898e-05
6.223358999999999922e-05
7.447681999999999957e-05
6.700206999999999799e-05
4.876033999999999740e-05
3.676427000000000097e-05
4.765952000000000139e-05
3.950782999999999677e-05
4.918740000000000276e-05
4.521748999999999793e-05
3.921247000000000236e-05
2.837840999999999991e-05
2.031858000000000088e-05
1.319886000000000055e-05
1.731952000000000049e-05
1.546472999999999991e-05
9.477565999999999172e-06
-1.902005000000000096e-05
-7.537963000000000118e-05
-7.229465000000000077e-05
-6.240708000000000626e-05
-1.092388999999999952e-04
-1.886292999999999932e-04
-2.631218000000000055e-04
-2.664143000000000218e-04
-1.842516000000000165e-05
2.337529000000000028e-04
3.664785999999999847e-04
3.672050999999999852e-04
3.739317000000000031e-04
3.683033999999999744e-04
3.423489999999999845e-04
2.707399999999999998e-04
1.526575999999999866e-04
3.268452000000000331e-05
-6.798614000000000397e-06
-1.856695000000000017e-05
-5.047234999999999797e-05
-9.264133000000000567e-05
-1.028889000000000035e-04
-8.820430000000000523e-05
-6.963987999999999570e-05
-1.039503999999999933e-04
-1.230519999999999867e-04
-1.003049999999999959e-04
-8.768878000000000512e-05
-8.484303000000000276e-05
-9.541696999999999592e-05
-7.743237999999999944e-05
-6.285253999999999776e-05
-6.929288999999999447e-05
-9.806472999999999850e-05
-8.201714999999999451e-05
-5.610906999999999912e-05
-4.915744000000000076e-05
-5.603179000000000043e-05
-5.175096999999999759e-05
-4.706527000000000280e-05
-4.242441000000000061e-05
-4.590221000000000313e-05
-4.436079999999999716e-05
-4.560706000000000308e-05
-4.170277000000000120e-05
-5.072620000000000232e-05
-4.713096999999999778e-05
-3.182615000000000021e-05
-3.683094000000000282e-05
-2.678949000000000090e-05
-1.652344999999999847e-05
-3.455119000000000148e-05
-3.767176999999999863e-05
-3.696279999999999786e-05
-2.918093999999999983e-05
-2.023311999999999916e-05
-9.245837999999999415e-06
2.339901999999999878e-06
-1.469664999999999929e-05
-2.716729999999999991e-05
-3.549219999999999876e-05
-2.359442000000000033e-05
-8.788702999999999259e-06
-8.124974999999999233e-06
-1.947310999999999896e-05
-3.506509999999999738e-05
-2.447783000000000006e-05
-1.617802000000000134e-05
-1.347418999999999982e-05
-1.469747999999999976e-05
-9.071544999999999219e-06
8.896629999999999217e-06
-9.436184000000000794e-06
-1.331365999999999985e-05
3.459744999999999856e-06
9.634155999999999650e-06
1.390346000000000054e-05
1.538222999999999858e-05
3.270412999999999955e-05
1.803164999999999870e-05
2.457972999999999988e-05
3.224949999999999676e-05
5.288246999999999853e-05
6.015028999999999835e-05
6.074377999999999798e-05
7.001413000000000655e-05
8.422979999999999779e-05
8.831413000000000414e-05
9.172338000000000203e-05
1.048522999999999990e-04
1.084792999999999966e-04
1.072370999999999969e-04
1.064962000000000054e-04
1.202354999999999977e-04
1.147158999999999972e-04
1.105393999999999940e-04
1.189750999999999987e-04
1.074137999999999981e-04
1.089939000000000001e-04
1.001786000000000034e-04
1.022562999999999988e-04
1.132808999999999948e-04
1.009551000000000052e-04
8.467428000000000205e-05
8.106181000000000443e-05
8.123302000000000105e-05
6.568307000000000605e-05
7.087513999999999783e-05
6.747546000000000533e-05
